#
# Number of atoms
#
 25
#
# The current total energy in Eh
#
  -3798.052380966305
#
# The current gradient in Eh/bohr
#
      -0.000063962968
      -0.000046120877
      -0.000001639004
       0.000052132206
       0.000043999921
       0.000066890976
      -0.000062329241
      -0.000086719635
       0.000019095084
       0.000089111972
      -0.000029935081
       0.000045631441
      -0.000083205664
       0.000040449466
      -0.000065197395
      -0.000009028235
       0.000127045977
      -0.000057892240
       0.000123026297
       0.000075460441
       0.000066486972
       0.000154490675
      -0.000060884336
      -0.000041194466
       0.000055754963
      -0.000041607046
      -0.000020908793
      -0.000017327243
       0.000032324548
       0.000060785101
      -0.000008337620
       0.000023943743
      -0.000048925217
      -0.000018883829
      -0.000043544751
      -0.000018706780
       0.000018891815
      -0.000016320765
      -0.000021355756
       0.000015161314
      -0.000025738389
      -0.000017461024
       0.000014221287
      -0.000019998589
       0.000016103132
       0.000048075782
      -0.000002033366
       0.000013566715
       0.000018788688
      -0.000000995404
       0.000004443288
      -0.000049401641
      -0.000036425518
      -0.000029297000
      -0.000055755546
       0.000030334002
      -0.000019599234
       0.000018147758
       0.000009661498
      -0.000028807358
      -0.000004607036
       0.000015295943
      -0.000003153449
      -0.000006159616
       0.000002063730
      -0.000081235389
       0.000019139606
      -0.000012548002
      -0.000029334454
      -0.000285026101
      -0.000059408002
      -0.000152031492
       0.000113269408
       0.000005155481
       0.000040793991
#
# The atomic numbers and current coordinates in Bohr
#
   6    -1.6010254   -3.1454130    0.0072910 
   6    -0.7045334    1.7774163    1.6443695 
   6    -3.6266866   -1.5214953    0.3390050 
   6     0.8586507   -2.3434407    0.5117335 
   6     1.3515520    0.1029671    1.3300643 
   6    -3.1822821    0.9597604    1.1960448 
   8    -6.0168112   -2.3401695   -0.1062856 
   8    -5.2776531    2.3834842    1.6311993 
   6     4.0094339    0.9385561    1.9370409 
   6     5.2094630    2.7530212    0.0474139 
   7     5.4157267    1.6163895   -2.5419289 
   1     3.6807369    1.6732472   -3.4718074 
   1     6.6541489    2.6152696   -3.6343067 
   1     6.0270197   -0.2137266   -2.4891246 
   1    -1.9663400   -5.0525006   -0.6346710 
   1    -0.4098838    3.6367222    2.4561492 
   1     2.4089523   -3.6542903    0.2642762 
   1    -7.1967326   -0.9803641    0.2278910 
   1    -4.8281333    4.0715985    2.1694868 
   1     5.2146314   -0.7263136    2.1179950 
   1     4.0403739    1.9044848    3.7610930 
   1     4.1043442    4.4751452   -0.1708424 
   1     7.1135883    3.2454814    0.6423946 
  29    -0.8236194    2.6475107   -2.5289394 
  29     0.5195718    3.6457418   -6.5540702 
