2		 # Number of atoms 
210		 # Number of surface points
2		 # Surface type
0		 # Epsilon function type
1		 # Print level
0		 # FEps X flag     

110		 # Number of Leb. points     

     0.000000000	 # FEps X parameter

     4.901000000	 # xi_gen

   260.865211312	 # Volume
   227.846630129	 # Area

    -0.008223508	 # CPCM dielectric energy
     0.703805295	 # One-electron operator energy

#--------------------------------------------
# CARTESIAN COORDINATES (A.U.) + RADII (A.U.)
#--------------------------------------------
    -4.970005752       0.000000000      -6.666118827      3.174739905
    -4.970005752       0.000000000     -11.843968434      3.174739905

#------------------------------------------------------------
# SURFACE POINTS (A.U.)    (Hint - charge NOT scaled by FEps)
#------------------------------------------------------------
          X                 Y                 Z               area            potential          charge            w_leb             Switch_F          G_width       atom
    -1.795265847      -0.000000000      -6.666118827       0.484873872       0.022732362      -0.000198362       0.048107466  1.00000000000000  7.03834111959330      0
    -8.144745657       0.000000000      -6.666118827       0.484873872       0.022732373      -0.000198362       0.048107466  1.00000000000000  7.03834111959330      0
    -4.970005752       3.174739905      -6.666118827       0.484873872       0.022732364      -0.000198362       0.048107466  1.00000000000000  7.03834111959330      0
    -4.970005752      -3.174739905      -6.666118827       0.484873872       0.022732367      -0.000198362       0.048107466  1.00000000000000  7.03834111959330      0
    -4.970005752       0.000000000      -3.491378922       0.484873872       0.073340935      -0.002189264       0.048107466  1.00000000000000  7.03834111959330      0
    -3.137068813       1.832936939      -4.833181888       1.240436754       0.051494811      -0.003155811       0.123071735  1.00000000000000  4.40045302828328      0
    -6.802942691       1.832936939      -4.833181888       1.240436754       0.051494816      -0.003155811       0.123071735  1.00000000000000  4.40045302828328      0
    -3.137068813      -1.832936939      -4.833181888       1.240436754       0.051494812      -0.003155811       0.123071735  1.00000000000000  4.40045302828328      0
    -6.802942691      -1.832936939      -4.833181888       1.240436754       0.051494816      -0.003155811       0.123071735  1.00000000000000  4.40045302828328      0
    -3.137068813       1.832936939      -8.499055766       1.240436754      -0.008213728       0.003662143       0.123071735  0.99999999997616  4.40045302828328      0
    -6.802942691       1.832936939      -8.499055766       1.240436754      -0.008213716       0.003662142       0.123071735  0.99999999997616  4.40045302828328      0
    -3.137068813      -1.832936939      -8.499055766       1.240436754      -0.008213724       0.003662143       0.123071735  0.99999999997616  4.40045302828328      0
    -6.802942691      -1.832936939      -8.499055766       1.240436754      -0.008213713       0.003662142       0.123071735  0.99999999997616  4.40045302828328      0
    -4.382311757       0.587693995      -3.602101039       1.040066750       0.071468957      -0.004282685       0.103191734  1.00000000000000  4.80567167445524      0
    -5.557699746       0.587693995      -3.602101039       1.040066750       0.071468958      -0.004282685       0.103191734  1.00000000000000  4.80567167445524      0
    -4.382311757      -0.587693995      -3.602101039       1.040066750       0.071468957      -0.004282685       0.103191734  1.00000000000000  4.80567167445524      0
    -5.557699746      -0.587693995      -3.602101039       1.040066750       0.071468958      -0.004282685       0.103191734  1.00000000000000  4.80567167445524      0
    -4.382311757       3.064017787      -6.078424832       1.040066750       0.032085900      -0.001139445       0.103191734  1.00000000000000  4.80567167445524      0
    -5.557699746       3.064017787      -6.078424832       1.040066750       0.032085902      -0.001139445       0.103191734  1.00000000000000  4.80567167445524      0
    -4.382311757      -3.064017787      -6.078424832       1.040066750       0.032085902      -0.001139445       0.103191734  1.00000000000000  4.80567167445524      0
    -5.557699746      -3.064017787      -6.078424832       1.040066750       0.032085904      -0.001139445       0.103191734  1.00000000000000  4.80567167445524      0
    -4.382311757       3.064017787      -7.253812821       1.040066750       0.012950720       0.000466992       0.103191734  1.00000000000000  4.80567167445524      0
    -5.557699746       3.064017787      -7.253812821       1.040066750       0.012950723       0.000466991       0.103191734  1.00000000000000  4.80567167445524      0
    -4.382311757      -3.064017787      -7.253812821       1.040066750       0.012950723       0.000466991       0.103191734  1.00000000000000  4.80567167445524      0
    -5.557699746      -3.064017787      -7.253812821       1.040066750       0.012950726       0.000466991       0.103191734  1.00000000000000  4.80567167445524      0
    -1.905987964       0.587693995      -6.078424832       1.040066750       0.032085897      -0.001139444       0.103191734  1.00000000000000  4.80567167445524      0
    -8.034023539       0.587693995      -6.078424832       1.040066750       0.032085907      -0.001139445       0.103191734  1.00000000000000  4.80567167445524      0
    -1.905987964      -0.587693995      -6.078424832       1.040066750       0.032085898      -0.001139444       0.103191734  1.00000000000000  4.80567167445524      0
    -8.034023539      -0.587693995      -6.078424832       1.040066750       0.032085907      -0.001139445       0.103191734  1.00000000000000  4.80567167445524      0
    -1.905987964       0.587693995      -7.253812821       1.040066750       0.012950719       0.000466992       0.103191734  1.00000000000000  4.80567167445524      0
    -8.034023539       0.587693995      -7.253812821       1.040066750       0.012950732       0.000466991       0.103191734  1.00000000000000  4.80567167445524      0
    -1.905987964      -0.587693995      -7.253812821       1.040066750       0.012950720       0.000466991       0.103191734  1.00000000000000  4.80567167445524      0
    -8.034023539      -0.587693995      -7.253812821       1.040066750       0.012950733       0.000466991       0.103191734  1.00000000000000  4.80567167445524      0
    -2.778098498       2.191907254      -5.980510595       1.259318316       0.033620558      -0.001526492       0.124945097  1.00000000000000  4.36733938899170      0
    -7.161913005       2.191907254      -5.980510595       1.259318316       0.033620565      -0.001526492       0.124945097  1.00000000000000  4.36733938899170      0
    -2.778098498      -2.191907254      -5.980510595       1.259318316       0.033620560      -0.001526492       0.124945097  1.00000000000000  4.36733938899170      0
    -7.161913005      -2.191907254      -5.980510595       1.259318316       0.033620566      -0.001526492       0.124945097  1.00000000000000  4.36733938899170      0
    -2.778098498       2.191907254      -7.351727059       1.259318316       0.011270385       0.000762554       0.124945097  1.00000000000000  4.36733938899170      0
    -7.161913005       2.191907254      -7.351727059       1.259318316       0.011270395       0.000762554       0.124945097  1.00000000000000  4.36733938899170      0
    -2.778098498      -2.191907254      -7.351727059       1.259318316       0.011270388       0.000762554       0.124945097  1.00000000000000  4.36733938899170      0
    -7.161913005      -2.191907254      -7.351727059       1.259318316       0.011270397       0.000762554       0.124945097  1.00000000000000  4.36733938899170      0
    -2.778098498       0.685608232      -4.474211573       1.259318316       0.057182562      -0.003754531       0.124945097  1.00000000000000  4.36733938899170      0
    -7.161913005       0.685608232      -4.474211573       1.259318316       0.057182567      -0.003754531       0.124945097  1.00000000000000  4.36733938899170      0
    -2.778098498      -0.685608232      -4.474211573       1.259318316       0.057182562      -0.003754531       0.124945097  1.00000000000000  4.36733938899170      0
    -7.161913005      -0.685608232      -4.474211573       1.259318316       0.057182567      -0.003754531       0.124945097  1.00000000000000  4.36733938899170      0
    -2.778098498       0.685608232      -8.858026080       1.259158306      -0.011215801       0.003392605       0.124945097  0.99987293946543  4.36733938899170      0
    -7.161913005       0.685608232      -8.858026080       1.259158306      -0.011215784       0.003392604       0.124945097  0.99987293946543  4.36733938899170      0
    -2.778098498      -0.685608232      -8.858026080       1.259158306      -0.011215799       0.003392605       0.124945097  0.99987293946543  4.36733938899170      0
    -7.161913005      -0.685608232      -8.858026080       1.259158306      -0.011215783       0.003392604       0.124945097  0.99987293946543  4.36733938899170      0
    -4.284397520       2.191907254      -4.474211573       1.259318316       0.057182565      -0.003754532       0.124945097  1.00000000000000  4.36733938899170      0
    -5.655613984       2.191907254      -4.474211573       1.259318316       0.057182567      -0.003754532       0.124945097  1.00000000000000  4.36733938899170      0
    -4.284397520      -2.191907254      -4.474211573       1.259318316       0.057182566      -0.003754531       0.124945097  1.00000000000000  4.36733938899170      0
    -5.655613984      -2.191907254      -4.474211573       1.259318316       0.057182567      -0.003754532       0.124945097  1.00000000000000  4.36733938899170      0
    -4.284397520       2.191907254      -8.858026080       1.259158306      -0.011215803       0.003392606       0.124945097  0.99987293946543  4.36733938899170      0
    -5.655613984       2.191907254      -8.858026080       1.259158306      -0.011215798       0.003392606       0.124945097  0.99987293946543  4.36733938899170      0
    -4.284397520      -2.191907254      -8.858026080       1.259158306      -0.011215797       0.003392606       0.124945097  0.99987293946543  4.36733938899170      0
    -5.655613984      -2.191907254      -8.858026080       1.259158306      -0.011215792       0.003392605       0.124945097  0.99987293946543  4.36733938899170      0
    -3.713794592       1.256211160      -4.034989695       1.215325130       0.064282953      -0.004310632       0.120580249  1.00000000000000  4.44568270661112      0
    -6.226216912       1.256211160      -4.034989695       1.215325130       0.064282956      -0.004310633       0.120580249  1.00000000000000  4.44568270661112      0
    -3.713794592      -1.256211160      -4.034989695       1.215325130       0.064282953      -0.004310632       0.120580249  1.00000000000000  4.44568270661112      0
    -6.226216912      -1.256211160      -4.034989695       1.215325130       0.064282956      -0.004310632       0.120580249  1.00000000000000  4.44568270661112      0
    -3.713794592       1.256211160      -9.297247958       0.402093229      -0.000375656      -0.000248577       0.120580249  0.33085239426205  4.44568270661112      0
    -6.226216912       1.256211160      -9.297247958       0.402093229      -0.000375644      -0.000248577       0.120580249  0.33085239426205  4.44568270661112      0
    -3.713794592      -1.256211160      -9.297247958       0.402093229      -0.000375651      -0.000248577       0.120580249  0.33085239426205  4.44568270661112      0
    -6.226216912      -1.256211160      -9.297247958       0.402093229      -0.000375640      -0.000248577       0.120580249  0.33085239426205  4.44568270661112      0
    -3.713794592       2.631129132      -5.409907667       1.215325130       0.042492435      -0.002265661       0.120580249  1.00000000000000  4.44568270661112      0
    -6.226216912       2.631129132      -5.409907667       1.215325130       0.042492438      -0.002265662       0.120580249  1.00000000000000  4.44568270661112      0
    -3.713794592      -2.631129132      -5.409907667       1.215325130       0.042492436      -0.002265662       0.120580249  1.00000000000000  4.44568270661112      0
    -6.226216912      -2.631129132      -5.409907667       1.215325130       0.042492439      -0.002265662       0.120580249  1.00000000000000  4.44568270661112      0
    -3.713794592       2.631129132      -7.922329987       1.215325130       0.001237739       0.002044228       0.120580249  1.00000000000000  4.44568270661112      0
    -6.226216912       2.631129132      -7.922329987       1.215325130       0.001237746       0.002044227       0.120580249  1.00000000000000  4.44568270661112      0
    -3.713794592      -2.631129132      -7.922329987       1.215325130       0.001237743       0.002044228       0.120580249  1.00000000000000  4.44568270661112      0
    -6.226216912      -2.631129132      -7.922329987       1.215325130       0.001237749       0.002044227       0.120580249  1.00000000000000  4.44568270661112      0
    -2.338876620       1.256211160      -5.409907667       1.215325130       0.042492432      -0.002265661       0.120580249  1.00000000000000  4.44568270661112      0
    -7.601134883       1.256211160      -5.409907667       1.215325130       0.042492440      -0.002265662       0.120580249  1.00000000000000  4.44568270661112      0
    -2.338876620      -1.256211160      -5.409907667       1.215325130       0.042492433      -0.002265661       0.120580249  1.00000000000000  4.44568270661112      0
    -7.601134883      -1.256211160      -5.409907667       1.215325130       0.042492440      -0.002265662       0.120580249  1.00000000000000  4.44568270661112      0
    -2.338876620       1.256211160      -7.922329987       1.215325130       0.001237740       0.002044228       0.120580249  1.00000000000000  4.44568270661112      0
    -7.601134883       1.256211160      -7.922329987       1.215325130       0.001237754       0.002044226       0.120580249  1.00000000000000  4.44568270661112      0
    -2.338876620      -1.256211160      -7.922329987       1.215325130       0.001237742       0.002044227       0.120580249  1.00000000000000  4.44568270661112      0
    -7.601134883      -1.256211160      -7.922329987       1.215325130       0.001237755       0.002044226       0.120580249  1.00000000000000  4.44568270661112      0
    -3.451308507       2.787926136      -6.666118827       1.227930583       0.022734374      -0.000472659       0.121830917  1.00000000000000  4.42280502536590      0
    -6.488702997       2.787926136      -6.666118827       1.227930583       0.022734380      -0.000472660       0.121830917  1.00000000000000  4.42280502536590      0
    -3.451308507      -2.787926136      -6.666118827       1.227930583       0.022734377      -0.000472659       0.121830917  1.00000000000000  4.42280502536590      0
    -6.488702997      -2.787926136      -6.666118827       1.227930583       0.022734382      -0.000472660       0.121830917  1.00000000000000  4.42280502536590      0
    -2.182079615       1.518697245      -6.666118827       1.227930583       0.022734373      -0.000472659       0.121830917  1.00000000000000  4.42280502536590      0
    -7.757931888       1.518697245      -6.666118827       1.227930583       0.022734384      -0.000472660       0.121830917  1.00000000000000  4.42280502536590      0
    -2.182079615      -1.518697245      -6.666118827       1.227930583       0.022734375      -0.000472659       0.121830917  1.00000000000000  4.42280502536590      0
    -7.757931888      -1.518697245      -6.666118827       1.227930583       0.022734384      -0.000472660       0.121830917  1.00000000000000  4.42280502536590      0
    -3.451308507      -0.000000000      -3.878192690       1.227930583       0.066862219      -0.004621702       0.121830917  1.00000000000000  4.42280502536590      0
    -6.488702997       0.000000000      -3.878192690       1.227930583       0.066862222      -0.004621703       0.121830917  1.00000000000000  4.42280502536590      0
    -3.451308507      -0.000000000      -9.454044963       0.019567496       0.015285469      -0.000081014       0.121830917  0.01593534375353  4.42280502536590      0
    -6.488702997       0.000000000      -9.454044963       0.019567496       0.015285485      -0.000081014       0.121830917  0.01593534375353  4.42280502536590      0
    -2.182079615      -0.000000000      -5.147421582       1.227930583       0.046574202      -0.002660363       0.121830917  1.00000000000000  4.42280502536590      0
    -7.757931888       0.000000000      -5.147421582       1.227930583       0.046574210      -0.002660363       0.121830917  1.00000000000000  4.42280502536590      0
    -2.182079615      -0.000000000      -8.184816072       1.227930583      -0.003326267       0.002725763       0.121830917  1.00000000000000  4.42280502536590      0
    -7.757931888       0.000000000      -8.184816072       1.227930583      -0.003326252       0.002725761       0.121830917  1.00000000000000  4.42280502536590      0
    -4.970005752       1.518697245      -3.878192690       1.227930583       0.066862222      -0.004621703       0.121830917  1.00000000000000  4.42280502536590      0
    -4.970005752      -1.518697245      -3.878192690       1.227930583       0.066862222      -0.004621703       0.121830917  1.00000000000000  4.42280502536590      0
    -4.970005752       1.518697245      -9.454044963       0.019567496       0.015285469      -0.000081014       0.121830917  0.01593534375353  4.42280502536590      0
    -4.970005752      -1.518697245      -9.454044963       0.019567496       0.015285475      -0.000081014       0.121830917  0.01593534375353  4.42280502536590      0
    -4.970005752       2.787926136      -5.147421582       1.227930583       0.046574207      -0.002660364       0.121830917  1.00000000000000  4.42280502536590      0
    -4.970005752      -2.787926136      -5.147421582       1.227930583       0.046574208      -0.002660364       0.121830917  1.00000000000000  4.42280502536590      0
    -4.970005752       2.787926136      -8.184816072       1.227930583      -0.003326268       0.002725763       0.121830917  1.00000000000000  4.42280502536590      0
    -4.970005752      -2.787926136      -8.184816072       1.227930583      -0.003326264       0.002725763       0.121830917  1.00000000000000  4.42280502536590      0
    -1.795265847      -0.000000000     -11.843968434       0.484873872       0.022732518      -0.000198369       0.048107466  1.00000000000000  7.03834111959330      1
    -8.144745657       0.000000000     -11.843968434       0.484873872       0.022732524      -0.000198369       0.048107466  1.00000000000000  7.03834111959330      1
    -4.970005752       3.174739905     -11.843968434       0.484873872       0.022732518      -0.000198369       0.048107466  1.00000000000000  7.03834111959330      1
    -4.970005752      -3.174739905     -11.843968434       0.484873872       0.022732521      -0.000198369       0.048107466  1.00000000000000  7.03834111959330      1
    -4.970005752      -0.000000000     -15.018708339       0.484873872       0.073340866      -0.002189255       0.048107466  1.00000000000000  7.03834111959330      1
    -3.137068813       1.832936939     -10.011031495       1.240436754      -0.008213672       0.003662140       0.123071735  0.99999999997616  4.40045302828328      1
    -6.802942691       1.832936939     -10.011031495       1.240436754      -0.008213660       0.003662139       0.123071735  0.99999999997616  4.40045302828328      1
    -3.137068813      -1.832936939     -10.011031495       1.240436754      -0.008213667       0.003662139       0.123071735  0.99999999997616  4.40045302828328      1
    -6.802942691      -1.832936939     -10.011031495       1.240436754      -0.008213656       0.003662138       0.123071735  0.99999999997616  4.40045302828328      1
    -3.137068813       1.832936939     -13.676905373       1.240436754       0.051494902      -0.003155816       0.123071735  1.00000000000000  4.40045302828328      1
    -6.802942691       1.832936939     -13.676905373       1.240436754       0.051494901      -0.003155815       0.123071735  1.00000000000000  4.40045302828328      1
    -3.137068813      -1.832936939     -13.676905373       1.240436754       0.051494903      -0.003155816       0.123071735  1.00000000000000  4.40045302828328      1
    -6.802942691      -1.832936939     -13.676905373       1.240436754       0.051494900      -0.003155815       0.123071735  1.00000000000000  4.40045302828328      1
    -4.382311757       0.587693995     -14.907986221       1.040066750       0.071468906      -0.004282670       0.103191734  1.00000000000000  4.80567167445524      1
    -5.557699746       0.587693995     -14.907986221       1.040066750       0.071468904      -0.004282670       0.103191734  1.00000000000000  4.80567167445524      1
    -4.382311757      -0.587693995     -14.907986221       1.040066750       0.071468906      -0.004282670       0.103191734  1.00000000000000  4.80567167445524      1
    -5.557699746      -0.587693995     -14.907986221       1.040066750       0.071468903      -0.004282670       0.103191734  1.00000000000000  4.80567167445524      1
    -4.382311757       3.064017787     -11.256274439       1.040066750       0.012950859       0.000466979       0.103191734  1.00000000000000  4.80567167445524      1
    -5.557699746       3.064017787     -11.256274439       1.040066750       0.012950862       0.000466979       0.103191734  1.00000000000000  4.80567167445524      1
    -4.382311757      -3.064017787     -11.256274439       1.040066750       0.012950864       0.000466979       0.103191734  1.00000000000000  4.80567167445524      1
    -5.557699746      -3.064017787     -11.256274439       1.040066750       0.012950865       0.000466979       0.103191734  1.00000000000000  4.80567167445524      1
    -4.382311757       3.064017787     -12.431662428       1.040066750       0.032086051      -0.001139458       0.103191734  1.00000000000000  4.80567167445524      1
    -5.557699746       3.064017787     -12.431662428       1.040066750       0.032086052      -0.001139458       0.103191734  1.00000000000000  4.80567167445524      1
    -4.382311757      -3.064017787     -12.431662428       1.040066750       0.032086053      -0.001139458       0.103191734  1.00000000000000  4.80567167445524      1
    -5.557699746      -3.064017787     -12.431662428       1.040066750       0.032086054      -0.001139458       0.103191734  1.00000000000000  4.80567167445524      1
    -1.905987964       0.587693995     -11.256274439       1.040066750       0.012950860       0.000466979       0.103191734  1.00000000000000  4.80567167445524      1
    -8.034023539       0.587693995     -11.256274439       1.040066750       0.012950870       0.000466978       0.103191734  1.00000000000000  4.80567167445524      1
    -1.905987964      -0.587693995     -11.256274439       1.040066750       0.012950861       0.000466979       0.103191734  1.00000000000000  4.80567167445524      1
    -8.034023539      -0.587693995     -11.256274439       1.040066750       0.012950870       0.000466978       0.103191734  1.00000000000000  4.80567167445524      1
    -1.905987964       0.587693995     -12.431662428       1.040066750       0.032086052      -0.001139458       0.103191734  1.00000000000000  4.80567167445524      1
    -8.034023539       0.587693995     -12.431662428       1.040066750       0.032086055      -0.001139458       0.103191734  1.00000000000000  4.80567167445524      1
    -1.905987964      -0.587693995     -12.431662428       1.040066750       0.032086052      -0.001139458       0.103191734  1.00000000000000  4.80567167445524      1
    -8.034023539      -0.587693995     -12.431662428       1.040066750       0.032086055      -0.001139458       0.103191734  1.00000000000000  4.80567167445524      1
    -2.778098498       2.191907254     -11.158360202       1.259318316       0.011270521       0.000762540       0.124945097  1.00000000000000  4.36733938899170      1
    -7.161913005       2.191907254     -11.158360202       1.259318316       0.011270529       0.000762539       0.124945097  1.00000000000000  4.36733938899170      1
    -2.778098498      -2.191907254     -11.158360202       1.259318316       0.011270525       0.000762540       0.124945097  1.00000000000000  4.36733938899170      1
    -7.161913005      -2.191907254     -11.158360202       1.259318316       0.011270531       0.000762539       0.124945097  1.00000000000000  4.36733938899170      1
    -2.778098498       2.191907254     -12.529576666       1.259318316       0.033620709      -0.001526507       0.124945097  1.00000000000000  4.36733938899170      1
    -7.161913005       2.191907254     -12.529576666       1.259318316       0.033620712      -0.001526507       0.124945097  1.00000000000000  4.36733938899170      1
    -2.778098498      -2.191907254     -12.529576666       1.259318316       0.033620712      -0.001526507       0.124945097  1.00000000000000  4.36733938899170      1
    -7.161913005      -2.191907254     -12.529576666       1.259318316       0.033620712      -0.001526507       0.124945097  1.00000000000000  4.36733938899170      1
    -2.778098498       0.685608232      -9.652061180       1.259158306      -0.011215775       0.003392605       0.124945097  0.99987293946543  4.36733938899170      1
    -7.161913005       0.685608232      -9.652061180       1.259158306      -0.011215759       0.003392604       0.124945097  0.99987293946543  4.36733938899170      1
    -2.778098498      -0.685608232      -9.652061180       1.259158306      -0.011215772       0.003392605       0.124945097  0.99987293946543  4.36733938899170      1
    -7.161913005      -0.685608232      -9.652061180       1.259158306      -0.011215757       0.003392603       0.124945097  0.99987293946543  4.36733938899170      1
    -2.778098498       0.685608232     -14.035875687       1.259318316       0.057182622      -0.003754531       0.124945097  1.00000000000000  4.36733938899170      1
    -7.161913005       0.685608232     -14.035875687       1.259318316       0.057182618      -0.003754530       0.124945097  1.00000000000000  4.36733938899170      1
    -2.778098498      -0.685608232     -14.035875687       1.259318316       0.057182622      -0.003754531       0.124945097  1.00000000000000  4.36733938899170      1
    -7.161913005      -0.685608232     -14.035875687       1.259318316       0.057182617      -0.003754530       0.124945097  1.00000000000000  4.36733938899170      1
    -4.284397520       2.191907254      -9.652061180       1.259158306      -0.011215777       0.003392606       0.124945097  0.99987293946543  4.36733938899170      1
    -5.655613984       2.191907254      -9.652061180       1.259158306      -0.011215771       0.003392605       0.124945097  0.99987293946543  4.36733938899170      1
    -4.284397520      -2.191907254      -9.652061180       1.259158306      -0.011215770       0.003392605       0.124945097  0.99987293946543  4.36733938899170      1
    -5.655613984      -2.191907254      -9.652061180       1.259158306      -0.011215765       0.003392604       0.124945097  0.99987293946543  4.36733938899170      1
    -4.284397520       2.191907254     -14.035875687       1.259318316       0.057182620      -0.003754531       0.124945097  1.00000000000000  4.36733938899170      1
    -5.655613984       2.191907254     -14.035875687       1.259318316       0.057182619      -0.003754531       0.124945097  1.00000000000000  4.36733938899170      1
    -4.284397520      -2.191907254     -14.035875687       1.259318316       0.057182620      -0.003754531       0.124945097  1.00000000000000  4.36733938899170      1
    -5.655613984      -2.191907254     -14.035875687       1.259318316       0.057182618      -0.003754530       0.124945097  1.00000000000000  4.36733938899170      1
    -3.713794592       1.256211160      -9.212839302       0.402093229      -0.000375658      -0.000248577       0.120580249  0.33085239426205  4.44568270661112      1
    -6.226216912       1.256211160      -9.212839302       0.402093229      -0.000375646      -0.000248577       0.120580249  0.33085239426205  4.44568270661112      1
    -3.713794592      -1.256211160      -9.212839302       0.402093229      -0.000375653      -0.000248577       0.120580249  0.33085239426205  4.44568270661112      1
    -6.226216912      -1.256211160      -9.212839302       0.402093229      -0.000375641      -0.000248577       0.120580249  0.33085239426205  4.44568270661112      1
    -3.713794592       1.256211160     -14.475097565       1.215325130       0.064282962      -0.004310624       0.120580249  1.00000000000000  4.44568270661112      1
    -6.226216912       1.256211160     -14.475097565       1.215325130       0.064282958      -0.004310624       0.120580249  1.00000000000000  4.44568270661112      1
    -3.713794592      -1.256211160     -14.475097565       1.215325130       0.064282961      -0.004310624       0.120580249  1.00000000000000  4.44568270661112      1
    -6.226216912      -1.256211160     -14.475097565       1.215325130       0.064282957      -0.004310623       0.120580249  1.00000000000000  4.44568270661112      1
    -3.713794592       2.631129132     -10.587757274       1.215325130       0.001237841       0.002044218       0.120580249  1.00000000000000  4.44568270661112      1
    -6.226216912       2.631129132     -10.587757274       1.215325130       0.001237848       0.002044218       0.120580249  1.00000000000000  4.44568270661112      1
    -3.713794592      -2.631129132     -10.587757274       1.215325130       0.001237847       0.002044218       0.120580249  1.00000000000000  4.44568270661112      1
    -6.226216912      -2.631129132     -10.587757274       1.215325130       0.001237852       0.002044217       0.120580249  1.00000000000000  4.44568270661112      1
    -3.713794592       2.631129132     -13.100179594       1.215325130       0.042492562      -0.002265672       0.120580249  1.00000000000000  4.44568270661112      1
    -6.226216912       2.631129132     -13.100179594       1.215325130       0.042492563      -0.002265672       0.120580249  1.00000000000000  4.44568270661112      1
    -3.713794592      -2.631129132     -13.100179594       1.215325130       0.042492564      -0.002265672       0.120580249  1.00000000000000  4.44568270661112      1
    -6.226216912      -2.631129132     -13.100179594       1.215325130       0.042492563      -0.002265672       0.120580249  1.00000000000000  4.44568270661112      1
    -2.338876620       1.256211160     -10.587757274       1.215325130       0.001237842       0.002044218       0.120580249  1.00000000000000  4.44568270661112      1
    -7.601134883       1.256211160     -10.587757274       1.215325130       0.001237855       0.002044217       0.120580249  1.00000000000000  4.44568270661112      1
    -2.338876620      -1.256211160     -10.587757274       1.215325130       0.001237845       0.002044218       0.120580249  1.00000000000000  4.44568270661112      1
    -7.601134883      -1.256211160     -10.587757274       1.215325130       0.001237856       0.002044217       0.120580249  1.00000000000000  4.44568270661112      1
    -2.338876620       1.256211160     -13.100179594       1.215325130       0.042492563      -0.002265673       0.120580249  1.00000000000000  4.44568270661112      1
    -7.601134883       1.256211160     -13.100179594       1.215325130       0.042492563      -0.002265672       0.120580249  1.00000000000000  4.44568270661112      1
    -2.338876620      -1.256211160     -13.100179594       1.215325130       0.042492564      -0.002265673       0.120580249  1.00000000000000  4.44568270661112      1
    -7.601134883      -1.256211160     -13.100179594       1.215325130       0.042492563      -0.002265672       0.120580249  1.00000000000000  4.44568270661112      1
    -3.451308507       2.787926136     -11.843968434       1.227930583       0.022734528      -0.000472676       0.121830917  1.00000000000000  4.42280502536590      1
    -6.488702997       2.787926136     -11.843968434       1.227930583       0.022734532      -0.000472676       0.121830917  1.00000000000000  4.42280502536590      1
    -3.451308507      -2.787926136     -11.843968434       1.227930583       0.022734532      -0.000472676       0.121830917  1.00000000000000  4.42280502536590      1
    -6.488702997      -2.787926136     -11.843968434       1.227930583       0.022734534      -0.000472676       0.121830917  1.00000000000000  4.42280502536590      1
    -2.182079615       1.518697245     -11.843968434       1.227930583       0.022734529      -0.000472676       0.121830917  1.00000000000000  4.42280502536590      1
    -7.757931888       1.518697245     -11.843968434       1.227930583       0.022734535      -0.000472676       0.121830917  1.00000000000000  4.42280502536590      1
    -2.182079615      -1.518697245     -11.843968434       1.227930583       0.022734531      -0.000472676       0.121830917  1.00000000000000  4.42280502536590      1
    -7.757931888      -1.518697245     -11.843968434       1.227930583       0.022734536      -0.000472676       0.121830917  1.00000000000000  4.42280502536590      1
    -3.451308507      -0.000000000      -9.056042297       0.019567496       0.015285464      -0.000081014       0.121830917  0.01593534375353  4.42280502536590      1
    -6.488702997       0.000000000      -9.056042297       0.019567496       0.015285480      -0.000081014       0.121830917  0.01593534375353  4.42280502536590      1
    -3.451308507      -0.000000000     -14.631894570       1.227930583       0.066862209      -0.004621691       0.121830917  1.00000000000000  4.42280502536590      1
    -6.488702997       0.000000000     -14.631894570       1.227930583       0.066862205      -0.004621690       0.121830917  1.00000000000000  4.42280502536590      1
    -2.182079615      -0.000000000     -10.325271189       1.227930583      -0.003326185       0.002725756       0.121830917  1.00000000000000  4.42280502536590      1
    -7.757931888       0.000000000     -10.325271189       1.227930583      -0.003326170       0.002725754       0.121830917  1.00000000000000  4.42280502536590      1
    -2.182079615      -0.000000000     -13.362665679       1.227930583       0.046574319      -0.002660372       0.121830917  1.00000000000000  4.42280502536590      1
    -7.757931888       0.000000000     -13.362665679       1.227930583       0.046574317      -0.002660371       0.121830917  1.00000000000000  4.42280502536590      1
    -4.970005752       1.518697245      -9.056042297       0.019567496       0.015285463      -0.000081014       0.121830917  0.01593534375353  4.42280502536590      1
    -4.970005752      -1.518697245      -9.056042297       0.019567496       0.015285469      -0.000081014       0.121830917  0.01593534375353  4.42280502536590      1
    -4.970005752       1.518697245     -14.631894570       1.227930583       0.066862207      -0.004621691       0.121830917  1.00000000000000  4.42280502536590      1
    -4.970005752      -1.518697245     -14.631894570       1.227930583       0.066862206      -0.004621691       0.121830917  1.00000000000000  4.42280502536590      1
    -4.970005752       2.787926136     -10.325271189       1.227930583      -0.003326185       0.002725756       0.121830917  1.00000000000000  4.42280502536590      1
    -4.970005752      -2.787926136     -10.325271189       1.227930583      -0.003326179       0.002725755       0.121830917  1.00000000000000  4.42280502536590      1
    -4.970005752       2.787926136     -13.362665679       1.227930583       0.046574317      -0.002660372       0.121830917  1.00000000000000  4.42280502536590      1
    -4.970005752      -2.787926136     -13.362665679       1.227930583       0.046574318      -0.002660372       0.121830917  1.00000000000000  4.42280502536590      1

