1		 # Number of atoms 
110		 # Number of surface points
2		 # Surface type
0		 # Epsilon function type
1		 # Print level
0		 # FEps X flag     

110		 # Number of Leb. points     

     0.000000000	 # FEps X parameter

     4.901000000	 # xi_gen

   134.033408522	 # Volume
   126.656115965	 # Area

    -0.624167253	 # CPCM dielectric energy
     8.410172012	 # One-electron operator energy

#--------------------------------------------
# CARTESIAN COORDINATES (A.U.) + RADII (A.U.)
#--------------------------------------------
     5.281177667      -5.302508498       0.059945063      3.174739905

#------------------------------------------------------------
# SURFACE POINTS (A.U.)    (Hint - charge NOT scaled by FEps)
#------------------------------------------------------------
          X                 Y                 Z               area            potential          charge            w_leb             Switch_F          G_width       atom
     8.455917572      -5.302508498       0.059945063       0.484873872       0.632378596      -0.008045099       0.048107466  1.00000000000000  7.03834111959330      0
     2.106437762      -5.302508498       0.059945063       0.484873872       0.632378606      -0.008045099       0.048107466  1.00000000000000  7.03834111959330      0
     5.281177667      -2.127768593       0.059945063       0.484873872       0.632519592      -0.008054821       0.048107466  1.00000000000000  7.03834111959330      0
     5.281177667      -8.477248403       0.059945063       0.484873872       0.632519584      -0.008054821       0.048107466  1.00000000000000  7.03834111959330      0
     5.281177667      -5.302508498       3.234684968       0.484873872       0.626620741      -0.007787765       0.048107466  1.00000000000000  7.03834111959330      0
     5.281177667      -5.302508498      -3.114794842       0.484873872       0.626620748      -0.007787765       0.048107466  1.00000000000000  7.03834111959330      0
     7.114114606      -3.469571559       1.892882001       1.240436754       0.635788273      -0.020346679       0.123071735  1.00000000000000  4.40045302828328      0
     3.448240728      -3.469571559       1.892882001       1.240436754       0.626612245      -0.019101088       0.123071735  1.00000000000000  4.40045302828328      0
     7.114114606      -7.135445436       1.892882001       1.240436754       0.626612141      -0.019101099       0.123071735  1.00000000000000  4.40045302828328      0
     3.448240728      -7.135445436       1.892882001       1.240436754       0.635669501      -0.020324683       0.123071735  1.00000000000000  4.40045302828328      0
     7.114114606      -3.469571559      -1.772991876       1.240436754       0.635669504      -0.020324684       0.123071735  1.00000000000000  4.40045302828328      0
     3.448240728      -3.469571559      -1.772991876       1.240436754       0.626612156      -0.019101100       0.123071735  1.00000000000000  4.40045302828328      0
     7.114114606      -7.135445436      -1.772991876       1.240436754       0.626612239      -0.019101088       0.123071735  1.00000000000000  4.40045302828328      0
     3.448240728      -7.135445436      -1.772991876       1.240436754       0.635788279      -0.020346680       0.123071735  1.00000000000000  4.40045302828328      0
     5.868871662      -4.714814503       3.123962850       1.040066750       0.627076568      -0.015882395       0.103191734  1.00000000000000  4.80567167445524      0
     4.693483673      -4.714814503       3.123962850       1.040066750       0.626619902      -0.015888910       0.103191734  1.00000000000000  4.80567167445524      0
     5.868871662      -5.890202492       3.123962850       1.040066750       0.626619848      -0.015888915       0.103191734  1.00000000000000  4.80567167445524      0
     4.693483673      -5.890202492       3.123962850       1.040066750       0.627055043      -0.015882129       0.103191734  1.00000000000000  4.80567167445524      0
     5.868871662      -4.714814503      -3.004072725       1.040066750       0.627055050      -0.015882129       0.103191734  1.00000000000000  4.80567167445524      0
     4.693483673      -4.714814503      -3.004072725       1.040066750       0.626619859      -0.015888916       0.103191734  1.00000000000000  4.80567167445524      0
     5.868871662      -5.890202492      -3.004072725       1.040066750       0.626619906      -0.015888910       0.103191734  1.00000000000000  4.80567167445524      0
     4.693483673      -5.890202492      -3.004072725       1.040066750       0.627076575      -0.015882395       0.103191734  1.00000000000000  4.80567167445524      0
     5.868871662      -2.238490710       0.647639057       1.040066750       0.635711985      -0.016918175       0.103191734  1.00000000000000  4.80567167445524      0
     4.693483673      -2.238490710       0.647639057       1.040066750       0.629503101      -0.016059597       0.103191734  1.00000000000000  4.80567167445524      0
     5.868871662      -8.366526285       0.647639057       1.040066750       0.629487492      -0.016057895       0.103191734  1.00000000000000  4.80567167445524      0
     4.693483673      -8.366526285       0.647639057       1.040066750       0.635674005      -0.016912282       0.103191734  1.00000000000000  4.80567167445524      0
     5.868871662      -2.238490710      -0.527748932       1.040066750       0.635674012      -0.016912282       0.103191734  1.00000000000000  4.80567167445524      0
     4.693483673      -2.238490710      -0.527748932       1.040066750       0.629487502      -0.016057896       0.103191734  1.00000000000000  4.80567167445524      0
     5.868871662      -8.366526285      -0.527748932       1.040066750       0.629503094      -0.016059597       0.103191734  1.00000000000000  4.80567167445524      0
     4.693483673      -8.366526285      -0.527748932       1.040066750       0.635711981      -0.016918175       0.103191734  1.00000000000000  4.80567167445524      0
     8.345195455      -4.714814503       0.647639057       1.040066750       0.635557548      -0.016894308       0.103191734  1.00000000000000  4.80567167445524      0
     2.217159880      -4.714814503       0.647639057       1.040066750       0.629394760      -0.016048150       0.103191734  1.00000000000000  4.80567167445524      0
     8.345195455      -5.890202492       0.647639057       1.040066750       0.629409981      -0.016049786       0.103191734  1.00000000000000  4.80567167445524      0
     2.217159880      -5.890202492       0.647639057       1.040066750       0.635520079      -0.016888515       0.103191734  1.00000000000000  4.80567167445524      0
     8.345195455      -4.714814503      -0.527748932       1.040066750       0.635520072      -0.016888514       0.103191734  1.00000000000000  4.80567167445524      0
     2.217159880      -4.714814503      -0.527748932       1.040066750       0.629409993      -0.016049787       0.103191734  1.00000000000000  4.80567167445524      0
     8.345195455      -5.890202492      -0.527748932       1.040066750       0.629394750      -0.016048149       0.103191734  1.00000000000000  4.80567167445524      0
     2.217159880      -5.890202492      -0.527748932       1.040066750       0.635557558      -0.016894308       0.103191734  1.00000000000000  4.80567167445524      0
     7.473084921      -3.110601244       0.745553295       1.259318316       0.642956426      -0.022060620       0.124945097  1.00000000000000  4.36733938899170      0
     3.089270414      -3.110601244       0.745553295       1.259318316       0.626608457      -0.019366767       0.124945097  1.00000000000000  4.36733938899170      0
     7.473084921      -7.494415751       0.745553295       1.259318316       0.626608403      -0.019366771       0.124945097  1.00000000000000  4.36733938899170      0
     3.089270414      -7.494415751       0.745553295       1.259318316       0.642886445      -0.022046022       0.124945097  1.00000000000000  4.36733938899170      0
     7.473084921      -3.110601244      -0.625663169       1.259318316       0.642886445      -0.022046022       0.124945097  1.00000000000000  4.36733938899170      0
     3.089270414      -3.110601244      -0.625663169       1.259318316       0.626608416      -0.019366773       0.124945097  1.00000000000000  4.36733938899170      0
     7.473084921      -7.494415751      -0.625663169       1.259318316       0.626608447      -0.019366766       0.124945097  1.00000000000000  4.36733938899170      0
     3.089270414      -7.494415751      -0.625663169       1.259318316       0.642956430      -0.022060620       0.124945097  1.00000000000000  4.36733938899170      0
     7.473084921      -4.616900265       2.251852316       1.259318316       0.630985026      -0.019795983       0.124945097  1.00000000000000  4.36733938899170      0
     3.089270414      -4.616900265       2.251852316       1.259318316       0.627380712      -0.019372350       0.124945097  1.00000000000000  4.36733938899170      0
     7.473084921      -5.988116730       2.251852316       1.259318316       0.627403037      -0.019373477       0.124945097  1.00000000000000  4.36733938899170      0
     3.089270414      -5.988116730       2.251852316       1.259318316       0.630905474      -0.019783767       0.124945097  1.00000000000000  4.36733938899170      0
     7.473084921      -4.616900265      -2.131962191       1.259318316       0.630905474      -0.019783767       0.124945097  1.00000000000000  4.36733938899170      0
     3.089270414      -4.616900265      -2.131962191       1.259318316       0.627403051      -0.019373478       0.124945097  1.00000000000000  4.36733938899170      0
     7.473084921      -5.988116730      -2.131962191       1.259318316       0.627380709      -0.019372350       0.124945097  1.00000000000000  4.36733938899170      0
     3.089270414      -5.988116730      -2.131962191       1.259318316       0.630985037      -0.019795984       0.124945097  1.00000000000000  4.36733938899170      0
     5.966785899      -3.110601244       2.251852316       1.259318316       0.631038683      -0.019804239       0.124945097  1.00000000000000  4.36733938899170      0
     4.595569435      -3.110601244       2.251852316       1.259318316       0.627432083      -0.019374978       0.124945097  1.00000000000000  4.36733938899170      0
     5.966785899      -7.494415751       2.251852316       1.259318316       0.627409230      -0.019373781       0.124945097  1.00000000000000  4.36733938899170      0
     4.595569435      -7.494415751       2.251852316       1.259318316       0.630958388      -0.019791859       0.124945097  1.00000000000000  4.36733938899170      0
     5.966785899      -3.110601244      -2.131962191       1.259318316       0.630958396      -0.019791860       0.124945097  1.00000000000000  4.36733938899170      0
     4.595569435      -3.110601244      -2.131962191       1.259318316       0.627409243      -0.019373782       0.124945097  1.00000000000000  4.36733938899170      0
     5.966785899      -7.494415751      -2.131962191       1.259318316       0.627432081      -0.019374978       0.124945097  1.00000000000000  4.36733938899170      0
     4.595569435      -7.494415751      -2.131962191       1.259318316       0.631038685      -0.019804239       0.124945097  1.00000000000000  4.36733938899170      0
     6.537388827      -4.046297337       2.691074194       1.215325130       0.629607779      -0.018899802       0.120580249  1.00000000000000  4.44568270661112      0
     4.024966507      -4.046297337       2.691074194       1.215325130       0.626616811      -0.018680212       0.120580249  1.00000000000000  4.44568270661112      0
     6.537388827      -6.558719658       2.691074194       1.215325130       0.626616712      -0.018680223       0.120580249  1.00000000000000  4.44568270661112      0
     4.024966507      -6.558719658       2.691074194       1.215325130       0.629536642      -0.018890720       0.120580249  1.00000000000000  4.44568270661112      0
     6.537388827      -4.046297337      -2.571184069       1.215325130       0.629536647      -0.018890721       0.120580249  1.00000000000000  4.44568270661112      0
     4.024966507      -4.046297337      -2.571184069       1.215325130       0.626616725      -0.018680224       0.120580249  1.00000000000000  4.44568270661112      0
     6.537388827      -6.558719658      -2.571184069       1.215325130       0.626616810      -0.018680212       0.120580249  1.00000000000000  4.44568270661112      0
     4.024966507      -6.558719658      -2.571184069       1.215325130       0.629607786      -0.018899802       0.120580249  1.00000000000000  4.44568270661112      0
     6.537388827      -2.671379366       1.316156223       1.215325130       0.637704959      -0.020254806       0.120580249  1.00000000000000  4.44568270661112      0
     4.024966507      -2.671379366       1.316156223       1.215325130       0.627271619      -0.018680036       0.120580249  1.00000000000000  4.44568270661112      0
     6.537388827      -7.933637629       1.316156223       1.215325130       0.627260244      -0.018679603       0.120580249  1.00000000000000  4.44568270661112      0
     4.024966507      -7.933637629       1.316156223       1.215325130       0.637610375      -0.020236990       0.120580249  1.00000000000000  4.44568270661112      0
     6.537388827      -2.671379366      -1.196266097       1.215325130       0.637610381      -0.020236990       0.120580249  1.00000000000000  4.44568270661112      0
     4.024966507      -2.671379366      -1.196266097       1.215325130       0.627260257      -0.018679604       0.120580249  1.00000000000000  4.44568270661112      0
     6.537388827      -7.933637629      -1.196266097       1.215325130       0.627271612      -0.018680035       0.120580249  1.00000000000000  4.44568270661112      0
     4.024966507      -7.933637629      -1.196266097       1.215325130       0.637704960      -0.020254806       0.120580249  1.00000000000000  4.44568270661112      0
     7.912306799      -4.046297337       1.316156223       1.215325130       0.637604570      -0.020235945       0.120580249  1.00000000000000  4.44568270661112      0
     2.650048536      -4.046297337       1.316156223       1.215325130       0.627226833      -0.018678410       0.120580249  1.00000000000000  4.44568270661112      0
     7.912306799      -6.558719658       1.316156223       1.215325130       0.627237834      -0.018678801       0.120580249  1.00000000000000  4.44568270661112      0
     2.650048536      -6.558719658       1.316156223       1.215325130       0.637510655      -0.020218286       0.120580249  1.00000000000000  4.44568270661112      0
     7.912306799      -4.046297337      -1.196266097       1.215325130       0.637510653      -0.020218286       0.120580249  1.00000000000000  4.44568270661112      0
     2.650048536      -4.046297337      -1.196266097       1.215325130       0.627237848      -0.018678802       0.120580249  1.00000000000000  4.44568270661112      0
     7.912306799      -6.558719658      -1.196266097       1.215325130       0.627226825      -0.018678409       0.120580249  1.00000000000000  4.44568270661112      0
     2.650048536      -6.558719658      -1.196266097       1.215325130       0.637604578      -0.020235945       0.120580249  1.00000000000000  4.44568270661112      0
     6.799874912      -2.514582361       0.059945063       1.227930583       0.642045161      -0.021334260       0.121830917  1.00000000000000  4.42280502536590      0
     3.762480422      -2.514582361       0.059945063       1.227930583       0.627155894      -0.018888084       0.121830917  1.00000000000000  4.42280502536590      0
     6.799874912      -8.090434634       0.059945063       1.227930583       0.627155883      -0.018888083       0.121830917  1.00000000000000  4.42280502536590      0
     3.762480422      -8.090434634       0.059945063       1.227930583       0.642045159      -0.021334260       0.121830917  1.00000000000000  4.42280502536590      0
     8.069103804      -3.783811252       0.059945063       1.227930583       0.641925166      -0.021310027       0.121830917  1.00000000000000  4.42280502536590      0
     2.493251531      -3.783811252       0.059945063       1.227930583       0.627122965      -0.018887188       0.121830917  1.00000000000000  4.42280502536590      0
     8.069103804      -6.821205743       0.059945063       1.227930583       0.627122953      -0.018887187       0.121830917  1.00000000000000  4.42280502536590      0
     2.493251531      -6.821205743       0.059945063       1.227930583       0.641925171      -0.021310028       0.121830917  1.00000000000000  4.42280502536590      0
     6.799874912      -5.302508498       2.847871199       1.227930583       0.627432127      -0.018899363       0.121830917  1.00000000000000  4.42280502536590      0
     3.762480422      -5.302508498       2.847871199       1.227930583       0.627403195      -0.018897914       0.121830917  1.00000000000000  4.42280502536590      0
     6.799874912      -5.302508498      -2.727981074       1.227930583       0.627403197      -0.018897914       0.121830917  1.00000000000000  4.42280502536590      0
     3.762480422      -5.302508498      -2.727981074       1.227930583       0.627432139      -0.018899364       0.121830917  1.00000000000000  4.42280502536590      0
     8.069103804      -5.302508498       1.578642308       1.227930583       0.630565862      -0.019248821       0.121830917  1.00000000000000  4.42280502536590      0
     2.493251531      -5.302508498       1.578642308       1.227930583       0.630514737      -0.019241422       0.121830917  1.00000000000000  4.42280502536590      0
     8.069103804      -5.302508498      -1.458752182       1.227930583       0.630514732      -0.019241422       0.121830917  1.00000000000000  4.42280502536590      0
     2.493251531      -5.302508498      -1.458752182       1.227930583       0.630565874      -0.019248823       0.121830917  1.00000000000000  4.42280502536590      0
     5.281177667      -3.783811252       2.847871199       1.227930583       0.627447698      -0.018900161       0.121830917  1.00000000000000  4.42280502536590      0
     5.281177667      -6.821205743       2.847871199       1.227930583       0.627418410      -0.018898664       0.121830917  1.00000000000000  4.42280502536590      0
     5.281177667      -3.783811252      -2.727981074       1.227930583       0.627418420      -0.018898665       0.121830917  1.00000000000000  4.42280502536590      0
     5.281177667      -6.821205743      -2.727981074       1.227930583       0.627447701      -0.018900161       0.121830917  1.00000000000000  4.42280502536590      0
     5.281177667      -2.514582361       1.578642308       1.227930583       0.630658169      -0.019262257       0.121830917  1.00000000000000  4.42280502536590      0
     5.281177667      -8.090434634       1.578642308       1.227930583       0.630606138      -0.019254664       0.121830917  1.00000000000000  4.42280502536590      0
     5.281177667      -2.514582361      -1.458752182       1.227930583       0.630606148      -0.019254665       0.121830917  1.00000000000000  4.42280502536590      0
     5.281177667      -8.090434634      -1.458752182       1.227930583       0.630658166      -0.019262256       0.121830917  1.00000000000000  4.42280502536590      0

