1		 # Number of atoms 
110		 # Number of surface points
2		 # Surface type
0		 # Epsilon function type
1		 # Print level
0		 # FEps X flag     

110		 # Number of Leb. points     

     0.000000000	 # FEps X parameter

     4.901000000	 # xi_gen

   134.033408522	 # Volume
   126.656115965	 # Area

    -0.002405924	 # CPCM dielectric energy
     0.558580127	 # One-electron operator energy

#--------------------------------------------
# CARTESIAN COORDINATES (A.U.) + RADII (A.U.)
#--------------------------------------------
     5.281177667      -5.302508498       0.059945063      3.174739905

#------------------------------------------------------------
# SURFACE POINTS (A.U.)    (Hint - charge NOT scaled by FEps)
#------------------------------------------------------------
          X                 Y                 Z               area            potential          charge            w_leb             Switch_F          G_width       atom
     8.455917572      -5.302508498       0.059945063       0.484873872       0.039175753      -0.000497283       0.048107466  1.00000000000000  7.03834111959330      0
     2.106437762      -5.302508498       0.059945063       0.484873872       0.039175546      -0.000497276       0.048107466  1.00000000000000  7.03834111959330      0
     5.281177667      -2.127768593       0.059945063       0.484873872       0.039176634      -0.000497329       0.048107466  1.00000000000000  7.03834111959330      0
     5.281177667      -8.477248403       0.059945063       0.484873872       0.039175625      -0.000497291       0.048107466  1.00000000000000  7.03834111959330      0
     5.281177667      -5.302508498       3.234684968       0.484873872       0.039175584      -0.000497289       0.048107466  1.00000000000000  7.03834111959330      0
     5.281177667      -5.302508498      -3.114794842       0.484873872       0.039176647      -0.000497329       0.048107466  1.00000000000000  7.03834111959330      0
     7.114114606      -3.469571559       1.892882001       1.240436754       0.039175635      -0.001219896       0.123071735  1.00000000000000  4.40045302828328      0
     3.448240728      -3.469571559       1.892882001       1.240436754       0.039175539      -0.001219889       0.123071735  1.00000000000000  4.40045302828328      0
     7.114114606      -7.135445436       1.892882001       1.240436754       0.039175578      -0.001219923       0.123071735  1.00000000000000  4.40045302828328      0
     3.448240728      -7.135445436       1.892882001       1.240436754       0.039175823      -0.001219968       0.123071735  1.00000000000000  4.40045302828328      0
     7.114114606      -3.469571559      -1.772991876       1.240436754       0.039177145      -0.001220092       0.123071735  1.00000000000000  4.40045302828328      0
     3.448240728      -3.469571559      -1.772991876       1.240436754       0.039176655      -0.001220023       0.123071735  1.00000000000000  4.40045302828328      0
     7.114114606      -7.135445436      -1.772991876       1.240436754       0.039175690      -0.001219903       0.123071735  1.00000000000000  4.40045302828328      0
     3.448240728      -7.135445436      -1.772991876       1.240436754       0.039175546      -0.001219888       0.123071735  1.00000000000000  4.40045302828328      0
     5.868871662      -4.714814503       3.123962850       1.040066750       0.039175468      -0.001014673       0.103191734  1.00000000000000  4.80567167445524      0
     4.693483673      -4.714814503       3.123962850       1.040066750       0.039175516      -0.001014681       0.103191734  1.00000000000000  4.80567167445524      0
     5.868871662      -5.890202492       3.123962850       1.040066750       0.039175635      -0.001014704       0.103191734  1.00000000000000  4.80567167445524      0
     4.693483673      -5.890202492       3.123962850       1.040066750       0.039175718      -0.001014717       0.103191734  1.00000000000000  4.80567167445524      0
     5.868871662      -4.714814503      -3.004072725       1.040066750       0.039176973      -0.001014814       0.103191734  1.00000000000000  4.80567167445524      0
     4.693483673      -4.714814503      -3.004072725       1.040066750       0.039176811      -0.001014795       0.103191734  1.00000000000000  4.80567167445524      0
     5.868871662      -5.890202492      -3.004072725       1.040066750       0.039176392      -0.001014748       0.103191734  1.00000000000000  4.80567167445524      0
     4.693483673      -5.890202492      -3.004072725       1.040066750       0.039176266      -0.001014734       0.103191734  1.00000000000000  4.80567167445524      0
     5.868871662      -2.238490710       0.647639057       1.040066750       0.039176366      -0.001014747       0.103191734  1.00000000000000  4.80567167445524      0
     4.693483673      -2.238490710       0.647639057       1.040066750       0.039176256      -0.001014734       0.103191734  1.00000000000000  4.80567167445524      0
     5.868871662      -8.366526285       0.647639057       1.040066750       0.039175674      -0.001014708       0.103191734  1.00000000000000  4.80567167445524      0
     4.693483673      -8.366526285       0.647639057       1.040066750       0.039175747      -0.001014719       0.103191734  1.00000000000000  4.80567167445524      0
     5.868871662      -2.238490710      -0.527748932       1.040066750       0.039176959      -0.001014814       0.103191734  1.00000000000000  4.80567167445524      0
     4.693483673      -2.238490710      -0.527748932       1.040066750       0.039176808      -0.001014796       0.103191734  1.00000000000000  4.80567167445524      0
     5.868871662      -8.366526285      -0.527748932       1.040066750       0.039175519      -0.001014677       0.103191734  1.00000000000000  4.80567167445524      0
     4.693483673      -8.366526285      -0.527748932       1.040066750       0.039175552      -0.001014684       0.103191734  1.00000000000000  4.80567167445524      0
     8.345195455      -4.714814503       0.647639057       1.040066750       0.039175732      -0.001014681       0.103191734  1.00000000000000  4.80567167445524      0
     2.217159880      -4.714814503       0.647639057       1.040066750       0.039175545      -0.001014668       0.103191734  1.00000000000000  4.80567167445524      0
     8.345195455      -5.890202492       0.647639057       1.040066750       0.039175526      -0.001014664       0.103191734  1.00000000000000  4.80567167445524      0
     2.217159880      -5.890202492       0.647639057       1.040066750       0.039175522      -0.001014674       0.103191734  1.00000000000000  4.80567167445524      0
     8.345195455      -4.714814503      -0.527748932       1.040066750       0.039176104      -0.001014719       0.103191734  1.00000000000000  4.80567167445524      0
     2.217159880      -4.714814503      -0.527748932       1.040066750       0.039175708      -0.001014678       0.103191734  1.00000000000000  4.80567167445524      0
     8.345195455      -5.890202492      -0.527748932       1.040066750       0.039175755      -0.001014684       0.103191734  1.00000000000000  4.80567167445524      0
     2.217159880      -5.890202492      -0.527748932       1.040066750       0.039175542      -0.001014667       0.103191734  1.00000000000000  4.80567167445524      0
     7.473084921      -3.110601244       0.745553295       1.259318316       0.039176115      -0.001236930       0.124945097  1.00000000000000  4.36733938899170      0
     3.089270414      -3.110601244       0.745553295       1.259318316       0.039175815      -0.001236891       0.124945097  1.00000000000000  4.36733938899170      0
     7.473084921      -7.494415751       0.745553295       1.259318316       0.039175488      -0.001236875       0.124945097  1.00000000000000  4.36733938899170      0
     3.089270414      -7.494415751       0.745553295       1.259318316       0.039175676      -0.001236913       0.124945097  1.00000000000000  4.36733938899170      0
     7.473084921      -3.110601244      -0.625663169       1.259318316       0.039176746      -0.001237014       0.124945097  1.00000000000000  4.36733938899170      0
     3.089270414      -3.110601244      -0.625663169       1.259318316       0.039176269      -0.001236948       0.124945097  1.00000000000000  4.36733938899170      0
     7.473084921      -7.494415751      -0.625663169       1.259318316       0.039175493      -0.001236861       0.124945097  1.00000000000000  4.36733938899170      0
     3.089270414      -7.494415751      -0.625663169       1.259318316       0.039175508      -0.001236873       0.124945097  1.00000000000000  4.36733938899170      0
     7.473084921      -4.616900265       2.251852316       1.259318316       0.039175441      -0.001236855       0.124945097  1.00000000000000  4.36733938899170      0
     3.089270414      -4.616900265       2.251852316       1.259318316       0.039175499      -0.001236873       0.124945097  1.00000000000000  4.36733938899170      0
     7.473084921      -5.988116730       2.251852316       1.259318316       0.039175458      -0.001236871       0.124945097  1.00000000000000  4.36733938899170      0
     3.089270414      -5.988116730       2.251852316       1.259318316       0.039175668      -0.001236913       0.124945097  1.00000000000000  4.36733938899170      0
     7.473084921      -4.616900265      -2.131962191       1.259318316       0.039176766      -0.001237017       0.124945097  1.00000000000000  4.36733938899170      0
     3.089270414      -4.616900265      -2.131962191       1.259318316       0.039176264      -0.001236947       0.124945097  1.00000000000000  4.36733938899170      0
     7.473084921      -5.988116730      -2.131962191       1.259318316       0.039176157      -0.001236935       0.124945097  1.00000000000000  4.36733938899170      0
     3.089270414      -5.988116730      -2.131962191       1.259318316       0.039175811      -0.001236889       0.124945097  1.00000000000000  4.36733938899170      0
     5.966785899      -3.110601244       2.251852316       1.259318316       0.039175590      -0.001236866       0.124945097  1.00000000000000  4.36733938899170      0
     4.595569435      -3.110601244       2.251852316       1.259318316       0.039175556      -0.001236864       0.124945097  1.00000000000000  4.36733938899170      0
     5.966785899      -7.494415751       2.251852316       1.259318316       0.039175809      -0.001236944       0.124945097  1.00000000000000  4.36733938899170      0
     4.595569435      -7.494415751       2.251852316       1.259318316       0.039175928      -0.001236965       0.124945097  1.00000000000000  4.36733938899170      0
     5.966785899      -3.110601244      -2.131962191       1.259318316       0.039177414      -0.001237107       0.124945097  1.00000000000000  4.36733938899170      0
     4.595569435      -3.110601244      -2.131962191       1.259318316       0.039177203      -0.001237076       0.124945097  1.00000000000000  4.36733938899170      0
     5.966785899      -7.494415751      -2.131962191       1.259318316       0.039175637      -0.001236871       0.124945097  1.00000000000000  4.36733938899170      0
     4.595569435      -7.494415751      -2.131962191       1.259318316       0.039175581      -0.001236865       0.124945097  1.00000000000000  4.36733938899170      0
     6.537388827      -4.046297337       2.691074194       1.215325130       0.039175438      -0.001192978       0.120580249  1.00000000000000  4.44568270661112      0
     4.024966507      -4.046297337       2.691074194       1.215325130       0.039175467      -0.001192987       0.120580249  1.00000000000000  4.44568270661112      0
     6.537388827      -6.558719658       2.691074194       1.215325130       0.039175641      -0.001193032       0.120580249  1.00000000000000  4.44568270661112      0
     4.024966507      -6.558719658       2.691074194       1.215325130       0.039175830      -0.001193066       0.120580249  1.00000000000000  4.44568270661112      0
     6.537388827      -4.046297337      -2.571184069       1.215325130       0.039177200      -0.001193192       0.120580249  1.00000000000000  4.44568270661112      0
     4.024966507      -4.046297337      -2.571184069       1.215325130       0.039176842      -0.001193142       0.120580249  1.00000000000000  4.44568270661112      0
     6.537388827      -6.558719658      -2.571184069       1.215325130       0.039176028      -0.001193038       0.120580249  1.00000000000000  4.44568270661112      0
     4.024966507      -6.558719658      -2.571184069       1.215325130       0.039175834      -0.001193014       0.120580249  1.00000000000000  4.44568270661112      0
     6.537388827      -2.671379366       1.316156223       1.215325130       0.039175986      -0.001193033       0.120580249  1.00000000000000  4.44568270661112      0
     4.024966507      -2.671379366       1.316156223       1.215325130       0.039175827      -0.001193014       0.120580249  1.00000000000000  4.44568270661112      0
     6.537388827      -7.933637629       1.316156223       1.215325130       0.039175666      -0.001193036       0.120580249  1.00000000000000  4.44568270661112      0
     4.024966507      -7.933637629       1.316156223       1.215325130       0.039175843      -0.001193067       0.120580249  1.00000000000000  4.44568270661112      0
     6.537388827      -2.671379366      -1.196266097       1.215325130       0.039177189      -0.001193191       0.120580249  1.00000000000000  4.44568270661112      0
     4.024966507      -2.671379366      -1.196266097       1.215325130       0.039176844      -0.001193143       0.120580249  1.00000000000000  4.44568270661112      0
     6.537388827      -7.933637629      -1.196266097       1.215325130       0.039175495      -0.001192984       0.120580249  1.00000000000000  4.44568270661112      0
     4.024966507      -7.933637629      -1.196266097       1.215325130       0.039175490      -0.001192989       0.120580249  1.00000000000000  4.44568270661112      0
     7.912306799      -4.046297337       1.316156223       1.215325130       0.039175687      -0.001192999       0.120580249  1.00000000000000  4.44568270661112      0
     2.650048536      -4.046297337       1.316156223       1.215325130       0.039175539      -0.001192987       0.120580249  1.00000000000000  4.44568270661112      0
     7.912306799      -6.558719658       1.316156223       1.215325130       0.039175449      -0.001192987       0.120580249  1.00000000000000  4.44568270661112      0
     2.650048536      -6.558719658       1.316156223       1.215325130       0.039175636      -0.001193026       0.120580249  1.00000000000000  4.44568270661112      0
     7.912306799      -4.046297337      -1.196266097       1.215325130       0.039176628      -0.001193116       0.120580249  1.00000000000000  4.44568270661112      0
     2.650048536      -4.046297337      -1.196266097       1.215325130       0.039176093      -0.001193045       0.120580249  1.00000000000000  4.44568270661112      0
     7.912306799      -6.558719658      -1.196266097       1.215325130       0.039175732      -0.001193004       0.120580249  1.00000000000000  4.44568270661112      0
     2.650048536      -6.558719658      -1.196266097       1.215325130       0.039175537      -0.001192985       0.120580249  1.00000000000000  4.44568270661112      0
     6.799874912      -2.514582361       0.059945063       1.227930583       0.039176613      -0.001206642       0.121830917  1.00000000000000  4.42280502536590      0
     3.762480422      -2.514582361       0.059945063       1.227930583       0.039176297      -0.001206600       0.121830917  1.00000000000000  4.42280502536590      0
     6.799874912      -8.090434634       0.059945063       1.227930583       0.039175512      -0.001206528       0.121830917  1.00000000000000  4.42280502536590      0
     3.762480422      -8.090434634       0.059945063       1.227930583       0.039175628      -0.001206552       0.121830917  1.00000000000000  4.42280502536590      0
     8.069103804      -3.783811252       0.059945063       1.227930583       0.039176191      -0.001206587       0.121830917  1.00000000000000  4.42280502536590      0
     2.493251531      -3.783811252       0.059945063       1.227930583       0.039175793      -0.001206538       0.121830917  1.00000000000000  4.42280502536590      0
     8.069103804      -6.821205743       0.059945063       1.227930583       0.039175495      -0.001206510       0.121830917  1.00000000000000  4.42280502536590      0
     2.493251531      -6.821205743       0.059945063       1.227930583       0.039175529      -0.001206527       0.121830917  1.00000000000000  4.42280502536590      0
     6.799874912      -5.302508498       2.847871199       1.227930583       0.039175463      -0.001206522       0.121830917  1.00000000000000  4.42280502536590      0
     3.762480422      -5.302508498       2.847871199       1.227930583       0.039175608      -0.001206550       0.121830917  1.00000000000000  4.42280502536590      0
     6.799874912      -5.302508498      -2.727981074       1.227930583       0.039176642      -0.001206645       0.121830917  1.00000000000000  4.42280502536590      0
     3.762480422      -5.302508498      -2.727981074       1.227930583       0.039176294      -0.001206598       0.121830917  1.00000000000000  4.42280502536590      0
     8.069103804      -5.302508498       1.578642308       1.227930583       0.039175464      -0.001206506       0.121830917  1.00000000000000  4.42280502536590      0
     2.493251531      -5.302508498       1.578642308       1.227930583       0.039175527      -0.001206527       0.121830917  1.00000000000000  4.42280502536590      0
     8.069103804      -5.302508498      -1.458752182       1.227930583       0.039176217      -0.001206590       0.121830917  1.00000000000000  4.42280502536590      0
     2.493251531      -5.302508498      -1.458752182       1.227930583       0.039175788      -0.001206536       0.121830917  1.00000000000000  4.42280502536590      0
     5.281177667      -3.783811252       2.847871199       1.227930583       0.039175448      -0.001206508       0.121830917  1.00000000000000  4.42280502536590      0
     5.281177667      -6.821205743       2.847871199       1.227930583       0.039175839      -0.001206597       0.121830917  1.00000000000000  4.42280502536590      0
     5.281177667      -3.783811252      -2.727981074       1.227930583       0.039177264      -0.001206729       0.121830917  1.00000000000000  4.42280502536590      0
     5.281177667      -6.821205743      -2.727981074       1.227930583       0.039175896      -0.001206549       0.121830917  1.00000000000000  4.42280502536590      0
     5.281177667      -2.514582361       1.578642308       1.227930583       0.039175868      -0.001206547       0.121830917  1.00000000000000  4.42280502536590      0
     5.281177667      -8.090434634       1.578642308       1.227930583       0.039175857      -0.001206599       0.121830917  1.00000000000000  4.42280502536590      0
     5.281177667      -2.514582361      -1.458752182       1.227930583       0.039177260      -0.001206729       0.121830917  1.00000000000000  4.42280502536590      0
     5.281177667      -8.090434634      -1.458752182       1.227930583       0.039175492      -0.001206512       0.121830917  1.00000000000000  4.42280502536590      0

