1		 # Number of atoms 
110		 # Number of surface points
2		 # Surface type
0		 # Epsilon function type
1		 # Print level
0		 # FEps X flag     

110		 # Number of Leb. points     

     0.000000000	 # FEps X parameter

     4.901000000	 # xi_gen

   134.033408522	 # Volume
   126.656115965	 # Area

    -0.001804451	 # CPCM dielectric energy
     0.484023374	 # One-electron operator energy

#--------------------------------------------
# CARTESIAN COORDINATES (A.U.) + RADII (A.U.)
#--------------------------------------------
     5.281177667      -5.302508498       0.059945063      3.174739905

#------------------------------------------------------------
# SURFACE POINTS (A.U.)    (Hint - charge NOT scaled by FEps)
#------------------------------------------------------------
          X                 Y                 Z               area            potential          charge            w_leb             Switch_F          G_width       atom
     8.455917572      -5.302508498       0.059945063       0.484873872       0.033927281      -0.000430655       0.048107466  1.00000000000000  7.03834111959330      0
     2.106437762      -5.302508498       0.059945063       0.484873872       0.033926608      -0.000430629       0.048107466  1.00000000000000  7.03834111959330      0
     5.281177667      -2.127768593       0.059945063       0.484873872       0.033929344      -0.000430754       0.048107466  1.00000000000000  7.03834111959330      0
     5.281177667      -8.477248403       0.059945063       0.484873872       0.033926084      -0.000430629       0.048107466  1.00000000000000  7.03834111959330      0
     5.281177667      -5.302508498       3.234684968       0.484873872       0.033926001      -0.000430626       0.048107466  1.00000000000000  7.03834111959330      0
     5.281177667      -5.302508498      -3.114794842       0.484873872       0.033929436      -0.000430757       0.048107466  1.00000000000000  7.03834111959330      0
     7.114114606      -3.469571559       1.892882001       1.240436754       0.033927001      -0.001056430       0.123071735  1.00000000000000  4.40045302828328      0
     3.448240728      -3.469571559       1.892882001       1.240436754       0.033926656      -0.001056401       0.123071735  1.00000000000000  4.40045302828328      0
     7.114114606      -7.135445436       1.892882001       1.240436754       0.033925995      -0.001056390       0.123071735  1.00000000000000  4.40045302828328      0
     3.448240728      -7.135445436       1.892882001       1.240436754       0.033926162      -0.001056440       0.123071735  1.00000000000000  4.40045302828328      0
     7.114114606      -3.469571559      -1.772991876       1.240436754       0.033930418      -0.001056837       0.123071735  1.00000000000000  4.40045302828328      0
     3.448240728      -3.469571559      -1.772991876       1.240436754       0.033929471      -0.001056715       0.123071735  1.00000000000000  4.40045302828328      0
     7.114114606      -7.135445436      -1.772991876       1.240436754       0.033927146      -0.001056446       0.123071735  1.00000000000000  4.40045302828328      0
     3.448240728      -7.135445436      -1.772991876       1.240436754       0.033926714      -0.001056404       0.123071735  1.00000000000000  4.40045302828328      0
     5.868871662      -4.714814503       3.123962850       1.040066750       0.033926025      -0.000878653       0.103191734  1.00000000000000  4.80567167445524      0
     4.693483673      -4.714814503       3.123962850       1.040066750       0.033926035      -0.000878661       0.103191734  1.00000000000000  4.80567167445524      0
     5.868871662      -5.890202492       3.123962850       1.040066750       0.033926002      -0.000878682       0.103191734  1.00000000000000  4.80567167445524      0
     4.693483673      -5.890202492       3.123962850       1.040066750       0.033926064      -0.000878696       0.103191734  1.00000000000000  4.80567167445524      0
     5.868871662      -4.714814503      -3.004072725       1.040066750       0.033930108      -0.000879011       0.103191734  1.00000000000000  4.80567167445524      0
     4.693483673      -4.714814503      -3.004072725       1.040066750       0.033929796      -0.000878977       0.103191734  1.00000000000000  4.80567167445524      0
     5.868871662      -5.890202492      -3.004072725       1.040066750       0.033928871      -0.000878881       0.103191734  1.00000000000000  4.80567167445524      0
     4.693483673      -5.890202492      -3.004072725       1.040066750       0.033928611      -0.000878854       0.103191734  1.00000000000000  4.80567167445524      0
     5.868871662      -2.238490710       0.647639057       1.040066750       0.033928752      -0.000878871       0.103191734  1.00000000000000  4.80567167445524      0
     4.693483673      -2.238490710       0.647639057       1.040066750       0.033928521      -0.000878847       0.103191734  1.00000000000000  4.80567167445524      0
     5.868871662      -8.366526285       0.647639057       1.040066750       0.033926076      -0.000878688       0.103191734  1.00000000000000  4.80567167445524      0
     4.693483673      -8.366526285       0.647639057       1.040066750       0.033926119      -0.000878700       0.103191734  1.00000000000000  4.80567167445524      0
     5.868871662      -2.238490710      -0.527748932       1.040066750       0.033930026      -0.000879004       0.103191734  1.00000000000000  4.80567167445524      0
     4.693483673      -2.238490710      -0.527748932       1.040066750       0.033929733      -0.000878972       0.103191734  1.00000000000000  4.80567167445524      0
     5.868871662      -8.366526285      -0.527748932       1.040066750       0.033926136      -0.000878663       0.103191734  1.00000000000000  4.80567167445524      0
     4.693483673      -8.366526285      -0.527748932       1.040066750       0.033926118      -0.000878667       0.103191734  1.00000000000000  4.80567167445524      0
     8.345195455      -4.714814503       0.647639057       1.040066750       0.033927233      -0.000878727       0.103191734  1.00000000000000  4.80567167445524      0
     2.217159880      -4.714814503       0.647639057       1.040066750       0.033926607      -0.000878680       0.103191734  1.00000000000000  4.80567167445524      0
     8.345195455      -5.890202492       0.647639057       1.040066750       0.033926609      -0.000878677       0.103191734  1.00000000000000  4.80567167445524      0
     2.217159880      -5.890202492       0.647639057       1.040066750       0.033926258      -0.000878666       0.103191734  1.00000000000000  4.80567167445524      0
     8.345195455      -4.714814503      -0.527748932       1.040066750       0.033928146      -0.000878813       0.103191734  1.00000000000000  4.80567167445524      0
     2.217159880      -4.714814503      -0.527748932       1.040066750       0.033927198      -0.000878724       0.103191734  1.00000000000000  4.80567167445524      0
     8.345195455      -5.890202492      -0.527748932       1.040066750       0.033927289      -0.000878733       0.103191734  1.00000000000000  4.80567167445524      0
     2.217159880      -5.890202492      -0.527748932       1.040066750       0.033926617      -0.000878680       0.103191734  1.00000000000000  4.80567167445524      0
     7.473084921      -3.110601244       0.745553295       1.259318316       0.033928186      -0.001071264       0.124945097  1.00000000000000  4.36733938899170      0
     3.089270414      -3.110601244       0.745553295       1.259318316       0.033927488      -0.001071183       0.124945097  1.00000000000000  4.36733938899170      0
     7.473084921      -7.494415751       0.745553295       1.259318316       0.033926076      -0.001071073       0.124945097  1.00000000000000  4.36733938899170      0
     3.089270414      -7.494415751       0.745553295       1.259318316       0.033926112      -0.001071108       0.124945097  1.00000000000000  4.36733938899170      0
     7.473084921      -3.110601244      -0.625663169       1.259318316       0.033929569      -0.001071435       0.124945097  1.00000000000000  4.36733938899170      0
     3.089270414      -3.110601244      -0.625663169       1.259318316       0.033928602      -0.001071312       0.124945097  1.00000000000000  4.36733938899170      0
     7.473084921      -7.494415751      -0.625663169       1.259318316       0.033926445      -0.001071085       0.124945097  1.00000000000000  4.36733938899170      0
     3.089270414      -7.494415751      -0.625663169       1.259318316       0.033926213      -0.001071077       0.124945097  1.00000000000000  4.36733938899170      0
     7.473084921      -4.616900265       2.251852316       1.259318316       0.033926327      -0.001071071       0.124945097  1.00000000000000  4.36733938899170      0
     3.089270414      -4.616900265       2.251852316       1.259318316       0.033926177      -0.001071076       0.124945097  1.00000000000000  4.36733938899170      0
     7.473084921      -5.988116730       2.251852316       1.259318316       0.033926015      -0.001071066       0.124945097  1.00000000000000  4.36733938899170      0
     3.089270414      -5.988116730       2.251852316       1.259318316       0.033926093      -0.001071107       0.124945097  1.00000000000000  4.36733938899170      0
     7.473084921      -4.616900265      -2.131962191       1.259318316       0.033929634      -0.001071442       0.124945097  1.00000000000000  4.36733938899170      0
     3.089270414      -4.616900265      -2.131962191       1.259318316       0.033928624      -0.001071313       0.124945097  1.00000000000000  4.36733938899170      0
     7.473084921      -5.988116730      -2.131962191       1.259318316       0.033928308      -0.001071278       0.124945097  1.00000000000000  4.36733938899170      0
     3.089270414      -5.988116730      -2.131962191       1.259318316       0.033927528      -0.001071185       0.124945097  1.00000000000000  4.36733938899170      0
     5.966785899      -3.110601244       2.251852316       1.259318316       0.033926862      -0.001071117       0.124945097  1.00000000000000  4.36733938899170      0
     4.595569435      -3.110601244       2.251852316       1.259318316       0.033926736      -0.001071106       0.124945097  1.00000000000000  4.36733938899170      0
     5.966785899      -7.494415751       2.251852316       1.259318316       0.033926115      -0.001071140       0.124945097  1.00000000000000  4.36733938899170      0
     4.595569435      -7.494415751       2.251852316       1.259318316       0.033926218      -0.001071165       0.124945097  1.00000000000000  4.36733938899170      0
     5.966785899      -3.110601244      -2.131962191       1.259318316       0.033930988      -0.001071616       0.124945097  1.00000000000000  4.36733938899170      0
     4.595569435      -3.110601244      -2.131962191       1.259318316       0.033930593      -0.001071563       0.124945097  1.00000000000000  4.36733938899170      0
     5.966785899      -7.494415751      -2.131962191       1.259318316       0.033927002      -0.001071131       0.124945097  1.00000000000000  4.36733938899170      0
     4.595569435      -7.494415751      -2.131962191       1.259318316       0.033926837      -0.001071114       0.124945097  1.00000000000000  4.36733938899170      0
     6.537388827      -4.046297337       2.691074194       1.215325130       0.033926297      -0.001033073       0.120580249  1.00000000000000  4.44568270661112      0
     4.024966507      -4.046297337       2.691074194       1.215325130       0.033926206      -0.001033075       0.120580249  1.00000000000000  4.44568270661112      0
     6.537388827      -6.558719658       2.691074194       1.215325130       0.033926001      -0.001033106       0.120580249  1.00000000000000  4.44568270661112      0
     4.024966507      -6.558719658       2.691074194       1.215325130       0.033926149      -0.001033144       0.120580249  1.00000000000000  4.44568270661112      0
     6.537388827      -4.046297337      -2.571184069       1.215325130       0.033930554      -0.001033546       0.120580249  1.00000000000000  4.44568270661112      0
     4.024966507      -4.046297337      -2.571184069       1.215325130       0.033929871      -0.001033459       0.120580249  1.00000000000000  4.44568270661112      0
     6.537388827      -6.558719658      -2.571184069       1.215325130       0.033928028      -0.001033241       0.120580249  1.00000000000000  4.44568270661112      0
     4.024966507      -6.558719658      -2.571184069       1.215325130       0.033927587      -0.001033190       0.120580249  1.00000000000000  4.44568270661112      0
     6.537388827      -2.671379366       1.316156223       1.215325130       0.033927887      -0.001033226       0.120580249  1.00000000000000  4.44568270661112      0
     4.024966507      -2.671379366       1.316156223       1.215325130       0.033927509      -0.001033185       0.120580249  1.00000000000000  4.44568270661112      0
     6.537388827      -7.933637629       1.316156223       1.215325130       0.033926048      -0.001033111       0.120580249  1.00000000000000  4.44568270661112      0
     4.024966507      -7.933637629       1.316156223       1.215325130       0.033926174      -0.001033146       0.120580249  1.00000000000000  4.44568270661112      0
     6.537388827      -2.671379366      -1.196266097       1.215325130       0.033930502      -0.001033541       0.120580249  1.00000000000000  4.44568270661112      0
     4.024966507      -2.671379366      -1.196266097       1.215325130       0.033929842      -0.001033457       0.120580249  1.00000000000000  4.44568270661112      0
     6.537388827      -7.933637629      -1.196266097       1.215325130       0.033926434      -0.001033087       0.120580249  1.00000000000000  4.44568270661112      0
     4.024966507      -7.933637629      -1.196266097       1.215325130       0.033926279      -0.001033080       0.120580249  1.00000000000000  4.44568270661112      0
     7.912306799      -4.046297337       1.316156223       1.215325130       0.033927133      -0.001033146       0.120580249  1.00000000000000  4.44568270661112      0
     2.650048536      -4.046297337       1.316156223       1.215325130       0.033926618      -0.001033102       0.120580249  1.00000000000000  4.44568270661112      0
     7.912306799      -6.558719658       1.316156223       1.215325130       0.033926124      -0.001033071       0.120580249  1.00000000000000  4.44568270661112      0
     2.650048536      -6.558719658       1.316156223       1.215325130       0.033926113      -0.001033103       0.120580249  1.00000000000000  4.44568270661112      0
     7.912306799      -4.046297337      -1.196266097       1.215325130       0.033929320      -0.001033396       0.120580249  1.00000000000000  4.44568270661112      0
     2.650048536      -4.046297337      -1.196266097       1.215325130       0.033928213      -0.001033262       0.120580249  1.00000000000000  4.44568270661112      0
     7.912306799      -6.558719658      -1.196266097       1.215325130       0.033927245      -0.001033159       0.120580249  1.00000000000000  4.44568270661112      0
     2.650048536      -6.558719658      -1.196266097       1.215325130       0.033926645      -0.001033102       0.120580249  1.00000000000000  4.44568270661112      0
     6.799874912      -2.514582361       0.059945063       1.227930583       0.033929284      -0.001045108       0.121830917  1.00000000000000  4.42280502536590      0
     3.762480422      -2.514582361       0.059945063       1.227930583       0.033928639      -0.001045029       0.121830917  1.00000000000000  4.42280502536590      0
     6.799874912      -8.090434634       0.059945063       1.227930583       0.033926099      -0.001044795       0.121830917  1.00000000000000  4.42280502536590      0
     3.762480422      -8.090434634       0.059945063       1.227930583       0.033926101      -0.001044814       0.121830917  1.00000000000000  4.42280502536590      0
     8.069103804      -3.783811252       0.059945063       1.227930583       0.033928350      -0.001044996       0.121830917  1.00000000000000  4.42280502536590      0
     2.493251531      -3.783811252       0.059945063       1.227930583       0.033927435      -0.001044892       0.121830917  1.00000000000000  4.42280502536590      0
     8.069103804      -6.821205743       0.059945063       1.227930583       0.033926468      -0.001044803       0.121830917  1.00000000000000  4.42280502536590      0
     2.493251531      -6.821205743       0.059945063       1.227930583       0.033926201      -0.001044798       0.121830917  1.00000000000000  4.42280502536590      0
     6.799874912      -5.302508498       2.847871199       1.227930583       0.033925998      -0.001044784       0.121830917  1.00000000000000  4.42280502536590      0
     3.762480422      -5.302508498       2.847871199       1.227930583       0.033926054      -0.001044812       0.121830917  1.00000000000000  4.42280502536590      0
     6.799874912      -5.302508498      -2.727981074       1.227930583       0.033929392      -0.001045120       0.121830917  1.00000000000000  4.42280502536590      0
     3.762480422      -5.302508498      -2.727981074       1.227930583       0.033928691      -0.001045032       0.121830917  1.00000000000000  4.42280502536590      0
     8.069103804      -5.302508498       1.578642308       1.227930583       0.033926400      -0.001044795       0.121830917  1.00000000000000  4.42280502536590      0
     2.493251531      -5.302508498       1.578642308       1.227930583       0.033926187      -0.001044799       0.121830917  1.00000000000000  4.42280502536590      0
     8.069103804      -5.302508498      -1.458752182       1.227930583       0.033928420      -0.001045005       0.121830917  1.00000000000000  4.42280502536590      0
     2.493251531      -5.302508498      -1.458752182       1.227930583       0.033927451      -0.001044892       0.121830917  1.00000000000000  4.42280502536590      0
     5.281177667      -3.783811252       2.847871199       1.227930583       0.033926269      -0.001044787       0.121830917  1.00000000000000  4.42280502536590      0
     5.281177667      -6.821205743       2.847871199       1.227930583       0.033926135      -0.001044862       0.121830917  1.00000000000000  4.42280502536590      0
     5.281177667      -3.783811252      -2.727981074       1.227930583       0.033930713      -0.001045284       0.121830917  1.00000000000000  4.42280502536590      0
     5.281177667      -6.821205743      -2.727981074       1.227930583       0.033927724      -0.001044922       0.121830917  1.00000000000000  4.42280502536590      0
     5.281177667      -2.514582361       1.578642308       1.227930583       0.033927603      -0.001044911       0.121830917  1.00000000000000  4.42280502536590      0
     5.281177667      -8.090434634       1.578642308       1.227930583       0.033926168      -0.001044865       0.121830917  1.00000000000000  4.42280502536590      0
     5.281177667      -2.514582361      -1.458752182       1.227930583       0.033930675      -0.001045281       0.121830917  1.00000000000000  4.42280502536590      0
     5.281177667      -8.090434634      -1.458752182       1.227930583       0.033926385      -0.001044798       0.121830917  1.00000000000000  4.42280502536590      0

