1		 # Number of atoms 
110		 # Number of surface points
2		 # Surface type
0		 # Epsilon function type
1		 # Print level
0		 # FEps X flag     

110		 # Number of Leb. points     

     0.000000000	 # FEps X parameter

     4.901000000	 # xi_gen

   134.033408522	 # Volume
   126.656115965	 # Area

    -0.623814901	 # CPCM dielectric energy
     8.408074799	 # One-electron operator energy

#--------------------------------------------
# CARTESIAN COORDINATES (A.U.) + RADII (A.U.)
#--------------------------------------------
     5.281177667      -5.302508498       0.059945063      3.174739905

#------------------------------------------------------------
# SURFACE POINTS (A.U.)    (Hint - charge NOT scaled by FEps)
#------------------------------------------------------------
          X                 Y                 Z               area            potential          charge            w_leb             Switch_F          G_width       atom
     8.455917572      -5.302508498       0.059945063       0.484873872       0.634920741      -0.008241462       0.048107466  1.00000000000000  7.03834111959330      0
     2.106437762      -5.302508498       0.059945063       0.484873872       0.634920742      -0.008241462       0.048107466  1.00000000000000  7.03834111959330      0
     5.281177667      -2.127768593       0.059945063       0.484873872       0.635557786      -0.008285244       0.048107466  1.00000000000000  7.03834111959330      0
     5.281177667      -8.477248403       0.059945063       0.484873872       0.635557785      -0.008285244       0.048107466  1.00000000000000  7.03834111959330      0
     5.281177667      -5.302508498       3.234684968       0.484873872       0.620929857      -0.007401073       0.048107466  1.00000000000000  7.03834111959330      0
     5.281177667      -5.302508498      -3.114794842       0.484873872       0.620929862      -0.007401073       0.048107466  1.00000000000000  7.03834111959330      0
     7.114114606      -3.469571559       1.892882001       1.240436754       0.630653815      -0.019653860       0.123071735  1.00000000000000  4.40045302828328      0
     3.448240728      -3.469571559       1.892882001       1.240436754       0.631165770      -0.019723790       0.123071735  1.00000000000000  4.40045302828328      0
     7.114114606      -7.135445436       1.892882001       1.240436754       0.631165510      -0.019723761       0.123071735  1.00000000000000  4.40045302828328      0
     3.448240728      -7.135445436       1.892882001       1.240436754       0.630654812      -0.019654029       0.123071735  1.00000000000000  4.40045302828328      0
     7.114114606      -3.469571559      -1.772991876       1.240436754       0.630654816      -0.019654029       0.123071735  1.00000000000000  4.40045302828328      0
     3.448240728      -3.469571559      -1.772991876       1.240436754       0.631165514      -0.019723761       0.123071735  1.00000000000000  4.40045302828328      0
     7.114114606      -7.135445436      -1.772991876       1.240436754       0.631165772      -0.019723790       0.123071735  1.00000000000000  4.40045302828328      0
     3.448240728      -7.135445436      -1.772991876       1.240436754       0.630653818      -0.019653860       0.123071735  1.00000000000000  4.40045302828328      0
     5.868871662      -4.714814503       3.123962850       1.040066750       0.621836231      -0.015220439       0.103191734  1.00000000000000  4.80567167445524      0
     4.693483673      -4.714814503       3.123962850       1.040066750       0.621863174      -0.015220524       0.103191734  1.00000000000000  4.80567167445524      0
     5.868871662      -5.890202492       3.123962850       1.040066750       0.621863008      -0.015220505       0.103191734  1.00000000000000  4.80567167445524      0
     4.693483673      -5.890202492       3.123962850       1.040066750       0.621836652      -0.015220490       0.103191734  1.00000000000000  4.80567167445524      0
     5.868871662      -4.714814503      -3.004072725       1.040066750       0.621836657      -0.015220490       0.103191734  1.00000000000000  4.80567167445524      0
     4.693483673      -4.714814503      -3.004072725       1.040066750       0.621863013      -0.015220506       0.103191734  1.00000000000000  4.80567167445524      0
     5.868871662      -5.890202492      -3.004072725       1.040066750       0.621863178      -0.015220525       0.103191734  1.00000000000000  4.80567167445524      0
     4.693483673      -5.890202492      -3.004072725       1.040066750       0.621836235      -0.015220440       0.103191734  1.00000000000000  4.80567167445524      0
     5.868871662      -2.238490710       0.647639057       1.040066750       0.633908120      -0.016595366       0.103191734  1.00000000000000  4.80567167445524      0
     4.693483673      -2.238490710       0.647639057       1.040066750       0.636467060      -0.017150470       0.103191734  1.00000000000000  4.80567167445524      0
     5.868871662      -8.366526285       0.647639057       1.040066750       0.636467066      -0.017150464       0.103191734  1.00000000000000  4.80567167445524      0
     4.693483673      -8.366526285       0.647639057       1.040066750       0.633908266      -0.016595380       0.103191734  1.00000000000000  4.80567167445524      0
     5.868871662      -2.238490710      -0.527748932       1.040066750       0.633908268      -0.016595380       0.103191734  1.00000000000000  4.80567167445524      0
     4.693483673      -2.238490710      -0.527748932       1.040066750       0.636467069      -0.017150464       0.103191734  1.00000000000000  4.80567167445524      0
     5.868871662      -8.366526285      -0.527748932       1.040066750       0.636467060      -0.017150469       0.103191734  1.00000000000000  4.80567167445524      0
     4.693483673      -8.366526285      -0.527748932       1.040066750       0.633908120      -0.016595366       0.103191734  1.00000000000000  4.80567167445524      0
     8.345195455      -4.714814503       0.647639057       1.040066750       0.635566344      -0.017027712       0.103191734  1.00000000000000  4.80567167445524      0
     2.217159880      -4.714814503       0.647639057       1.040066750       0.633691065      -0.016566527       0.103191734  1.00000000000000  4.80567167445524      0
     8.345195455      -5.890202492       0.647639057       1.040066750       0.633690786      -0.016566493       0.103191734  1.00000000000000  4.80567167445524      0
     2.217159880      -5.890202492       0.647639057       1.040066750       0.635566771      -0.017027774       0.103191734  1.00000000000000  4.80567167445524      0
     8.345195455      -4.714814503      -0.527748932       1.040066750       0.635566772      -0.017027774       0.103191734  1.00000000000000  4.80567167445524      0
     2.217159880      -4.714814503      -0.527748932       1.040066750       0.633690788      -0.016566493       0.103191734  1.00000000000000  4.80567167445524      0
     8.345195455      -5.890202492      -0.527748932       1.040066750       0.633691065      -0.016566527       0.103191734  1.00000000000000  4.80567167445524      0
     2.217159880      -5.890202492      -0.527748932       1.040066750       0.635566346      -0.017027712       0.103191734  1.00000000000000  4.80567167445524      0
     7.473084921      -3.110601244       0.745553295       1.259318316       0.635456912      -0.020742971       0.124945097  1.00000000000000  4.36733938899170      0
     3.089270414      -3.110601244       0.745553295       1.259318316       0.636361228      -0.020891561       0.124945097  1.00000000000000  4.36733938899170      0
     7.473084921      -7.494415751       0.745553295       1.259318316       0.636361121      -0.020891551       0.124945097  1.00000000000000  4.36733938899170      0
     3.089270414      -7.494415751       0.745553295       1.259318316       0.635457403      -0.020743060       0.124945097  1.00000000000000  4.36733938899170      0
     7.473084921      -3.110601244      -0.625663169       1.259318316       0.635457404      -0.020743060       0.124945097  1.00000000000000  4.36733938899170      0
     3.089270414      -3.110601244      -0.625663169       1.259318316       0.636361124      -0.020891551       0.124945097  1.00000000000000  4.36733938899170      0
     7.473084921      -7.494415751      -0.625663169       1.259318316       0.636361228      -0.020891561       0.124945097  1.00000000000000  4.36733938899170      0
     3.089270414      -7.494415751      -0.625663169       1.259318316       0.635456912      -0.020742971       0.124945097  1.00000000000000  4.36733938899170      0
     7.473084921      -4.616900265       2.251852316       1.259318316       0.628535518      -0.019600011       0.124945097  1.00000000000000  4.36733938899170      0
     3.089270414      -4.616900265       2.251852316       1.259318316       0.627851132      -0.019381634       0.124945097  1.00000000000000  4.36733938899170      0
     7.473084921      -5.988116730       2.251852316       1.259318316       0.627850481      -0.019381545       0.124945097  1.00000000000000  4.36733938899170      0
     3.089270414      -5.988116730       2.251852316       1.259318316       0.628536594      -0.019600190       0.124945097  1.00000000000000  4.36733938899170      0
     7.473084921      -4.616900265      -2.131962191       1.259318316       0.628536598      -0.019600190       0.124945097  1.00000000000000  4.36733938899170      0
     3.089270414      -4.616900265      -2.131962191       1.259318316       0.627850486      -0.019381545       0.124945097  1.00000000000000  4.36733938899170      0
     7.473084921      -5.988116730      -2.131962191       1.259318316       0.627851135      -0.019381634       0.124945097  1.00000000000000  4.36733938899170      0
     3.089270414      -5.988116730      -2.131962191       1.259318316       0.628535522      -0.019600011       0.124945097  1.00000000000000  4.36733938899170      0
     5.966785899      -3.110601244       2.251852316       1.259318316       0.627838331      -0.019379998       0.124945097  1.00000000000000  4.36733938899170      0
     4.595569435      -3.110601244       2.251852316       1.259318316       0.628927243      -0.019647169       0.124945097  1.00000000000000  4.36733938899170      0
     5.966785899      -7.494415751       2.251852316       1.259318316       0.628927252      -0.019647161       0.124945097  1.00000000000000  4.36733938899170      0
     4.595569435      -7.494415751       2.251852316       1.259318316       0.627838890      -0.019380076       0.124945097  1.00000000000000  4.36733938899170      0
     5.966785899      -3.110601244      -2.131962191       1.259318316       0.627838895      -0.019380077       0.124945097  1.00000000000000  4.36733938899170      0
     4.595569435      -3.110601244      -2.131962191       1.259318316       0.628927256      -0.019647161       0.124945097  1.00000000000000  4.36733938899170      0
     5.966785899      -7.494415751      -2.131962191       1.259318316       0.628927245      -0.019647169       0.124945097  1.00000000000000  4.36733938899170      0
     4.595569435      -7.494415751      -2.131962191       1.259318316       0.627838334      -0.019379998       0.124945097  1.00000000000000  4.36733938899170      0
     6.537388827      -4.046297337       2.691074194       1.215325130       0.625245626      -0.018386275       0.120580249  1.00000000000000  4.44568270661112      0
     4.024966507      -4.046297337       2.691074194       1.215325130       0.625416385      -0.018399862       0.120580249  1.00000000000000  4.44568270661112      0
     6.537388827      -6.558719658       2.691074194       1.215325130       0.625416101      -0.018399826       0.120580249  1.00000000000000  4.44568270661112      0
     4.024966507      -6.558719658       2.691074194       1.215325130       0.625246484      -0.018386406       0.120580249  1.00000000000000  4.44568270661112      0
     6.537388827      -4.046297337      -2.571184069       1.215325130       0.625246489      -0.018386406       0.120580249  1.00000000000000  4.44568270661112      0
     4.024966507      -4.046297337      -2.571184069       1.215325130       0.625416106      -0.018399827       0.120580249  1.00000000000000  4.44568270661112      0
     6.537388827      -6.558719658      -2.571184069       1.215325130       0.625416388      -0.018399862       0.120580249  1.00000000000000  4.44568270661112      0
     4.024966507      -6.558719658      -2.571184069       1.215325130       0.625245630      -0.018386276       0.120580249  1.00000000000000  4.44568270661112      0
     6.537388827      -2.671379366       1.316156223       1.215325130       0.632174198      -0.019298020       0.120580249  1.00000000000000  4.44568270661112      0
     4.024966507      -2.671379366       1.316156223       1.215325130       0.635156334      -0.020020675       0.120580249  1.00000000000000  4.44568270661112      0
     6.537388827      -7.933637629       1.316156223       1.215325130       0.635156255      -0.020020659       0.120580249  1.00000000000000  4.44568270661112      0
     4.024966507      -7.933637629       1.316156223       1.215325130       0.632174739      -0.019298102       0.120580249  1.00000000000000  4.44568270661112      0
     6.537388827      -2.671379366      -1.196266097       1.215325130       0.632174742      -0.019298102       0.120580249  1.00000000000000  4.44568270661112      0
     4.024966507      -2.671379366      -1.196266097       1.215325130       0.635156258      -0.020020659       0.120580249  1.00000000000000  4.44568270661112      0
     6.537388827      -7.933637629      -1.196266097       1.215325130       0.635156334      -0.020020675       0.120580249  1.00000000000000  4.44568270661112      0
     4.024966507      -7.933637629      -1.196266097       1.215325130       0.632174199      -0.019298020       0.120580249  1.00000000000000  4.44568270661112      0
     7.912306799      -4.046297337       1.316156223       1.215325130       0.634275890      -0.019888460       0.120580249  1.00000000000000  4.44568270661112      0
     2.650048536      -4.046297337       1.316156223       1.215325130       0.632447382      -0.019339315       0.120580249  1.00000000000000  4.44568270661112      0
     7.912306799      -6.558719658       1.316156223       1.215325130       0.632447017      -0.019339273       0.120580249  1.00000000000000  4.44568270661112      0
     2.650048536      -6.558719658       1.316156223       1.215325130       0.634276798      -0.019888618       0.120580249  1.00000000000000  4.44568270661112      0
     7.912306799      -4.046297337      -1.196266097       1.215325130       0.634276799      -0.019888618       0.120580249  1.00000000000000  4.44568270661112      0
     2.650048536      -4.046297337      -1.196266097       1.215325130       0.632447020      -0.019339274       0.120580249  1.00000000000000  4.44568270661112      0
     7.912306799      -6.558719658      -1.196266097       1.215325130       0.632447382      -0.019339315       0.120580249  1.00000000000000  4.44568270661112      0
     2.650048536      -6.558719658      -1.196266097       1.215325130       0.634275892      -0.019888460       0.120580249  1.00000000000000  4.44568270661112      0
     6.799874912      -2.514582361       0.059945063       1.227930583       0.634500916      -0.019871958       0.121830917  1.00000000000000  4.42280502536590      0
     3.762480422      -2.514582361       0.059945063       1.227930583       0.638473728      -0.020850967       0.121830917  1.00000000000000  4.42280502536590      0
     6.799874912      -8.090434634       0.059945063       1.227930583       0.638473726      -0.020850967       0.121830917  1.00000000000000  4.42280502536590      0
     3.762480422      -8.090434634       0.059945063       1.227930583       0.634500915      -0.019871958       0.121830917  1.00000000000000  4.42280502536590      0
     8.069103804      -3.783811252       0.059945063       1.227930583       0.637306788      -0.020660089       0.121830917  1.00000000000000  4.42280502536590      0
     2.493251531      -3.783811252       0.059945063       1.227930583       0.634976884      -0.019949648       0.121830917  1.00000000000000  4.42280502536590      0
     8.069103804      -6.821205743       0.059945063       1.227930583       0.634976883      -0.019949648       0.121830917  1.00000000000000  4.42280502536590      0
     2.493251531      -6.821205743       0.059945063       1.227930583       0.637306788      -0.020660089       0.121830917  1.00000000000000  4.42280502536590      0
     6.799874912      -5.302508498       2.847871199       1.227930583       0.623979648      -0.018394100       0.121830917  1.00000000000000  4.42280502536590      0
     3.762480422      -5.302508498       2.847871199       1.227930583       0.623980362      -0.018394203       0.121830917  1.00000000000000  4.42280502536590      0
     6.799874912      -5.302508498      -2.727981074       1.227930583       0.623980366      -0.018394203       0.121830917  1.00000000000000  4.42280502536590      0
     3.762480422      -5.302508498      -2.727981074       1.227930583       0.623979653      -0.018394101       0.121830917  1.00000000000000  4.42280502536590      0
     8.069103804      -5.302508498       1.578642308       1.227930583       0.631567229      -0.019492520       0.121830917  1.00000000000000  4.42280502536590      0
     2.493251531      -5.302508498       1.578642308       1.227930583       0.631568027      -0.019492645       0.121830917  1.00000000000000  4.42280502536590      0
     8.069103804      -5.302508498      -1.458752182       1.227930583       0.631568028      -0.019492645       0.121830917  1.00000000000000  4.42280502536590      0
     2.493251531      -5.302508498      -1.458752182       1.227930583       0.631567232      -0.019492520       0.121830917  1.00000000000000  4.42280502536590      0
     5.281177667      -3.783811252       2.847871199       1.227930583       0.624052951      -0.018398501       0.121830917  1.00000000000000  4.42280502536590      0
     5.281177667      -6.821205743       2.847871199       1.227930583       0.624053203      -0.018398531       0.121830917  1.00000000000000  4.42280502536590      0
     5.281177667      -3.783811252      -2.727981074       1.227930583       0.624053208      -0.018398532       0.121830917  1.00000000000000  4.42280502536590      0
     5.281177667      -6.821205743      -2.727981074       1.227930583       0.624052955      -0.018398501       0.121830917  1.00000000000000  4.42280502536590      0
     5.281177667      -2.514582361       1.578642308       1.227930583       0.631986096      -0.019553535       0.121830917  1.00000000000000  4.42280502536590      0
     5.281177667      -8.090434634       1.578642308       1.227930583       0.631986275      -0.019553547       0.121830917  1.00000000000000  4.42280502536590      0
     5.281177667      -2.514582361      -1.458752182       1.227930583       0.631986278      -0.019553547       0.121830917  1.00000000000000  4.42280502536590      0
     5.281177667      -8.090434634      -1.458752182       1.227930583       0.631986097      -0.019553535       0.121830917  1.00000000000000  4.42280502536590      0

