#
# Number of atoms
#
 28
#
# The current total energy in Eh
#
 -13639.654390493472
#
# The current gradient in Eh/bohr
#
       0.000044789600
       0.000150101141
      -0.000158012679
      -0.000131326974
       0.000156530014
      -0.000078623724
       0.000034472891
      -0.000010418970
       0.000019426313
       0.000037868112
      -0.000030341091
      -0.000074211083
       0.000035821928
       0.000033333459
       0.000007231612
      -0.000006337671
       0.000021310378
       0.000059615445
      -0.000002473306
       0.000056534429
       0.000050884845
      -0.000025341561
      -0.000034012500
      -0.000027951111
      -0.000033125357
       0.000077793475
       0.000070047979
      -0.000005102780
       0.000027499571
      -0.000091884118
       0.000019882982
      -0.000029618611
       0.000005258408
       0.000011908810
      -0.000061946033
       0.000009401382
      -0.000013787704
      -0.000017190527
       0.000046966775
       0.000005195399
       0.000014464648
      -0.000049483157
       0.000005540188
       0.000073765392
       0.000007294111
       0.000007373706
       0.000057077586
       0.000045299981
       0.000000547992
      -0.000052241181
      -0.000079447519
       0.000006184930
      -0.000002893714
      -0.000106689760
       0.000011314463
       0.000002553642
       0.000052716794
       0.000001356409
      -0.000031833301
       0.000019389421
       0.000099211576
       0.000080653879
      -0.000143411787
      -0.000176961396
       0.000100815620
      -0.000098163895
       0.000172392485
       0.000018048871
       0.000149842149
       0.000012157131
      -0.000141228389
       0.000285588260
      -0.000043421135
       0.000098890592
      -0.000207105410
       0.000011283400
       0.000085999301
       0.000143005066
       0.000106614253
       0.000144511372
      -0.000034949704
      -0.000085645828
       0.000056204497
      -0.000044078597
#
# The atomic numbers and current coordinates in Bohr
#
   8     5.4597467   -0.8178136    3.3854901 
   8     6.1974664    4.5184396    2.5415285 
   7    -6.9293871   -1.8910771    0.0108494 
   6    -2.4954830   -0.5676724   -1.2763085 
   6    -0.1335458    0.7577031   -0.3928823 
   6    -4.6018847   -0.5619513    0.7249660 
   6     1.6736656   -0.5374904    1.0411538 
   6     0.2808168    3.3103171   -0.8582600 
   6     3.8600942    0.5823984    2.0376747 
   6     2.4294849    4.5020448    0.1150197 
   6     4.2481193    3.2512977    1.5865574 
   1    -3.2250604    0.3341977   -2.9894197 
   1    -2.0744999   -2.5360058   -1.7586925 
   1    -5.0887247    1.3939771    1.1812704 
   1    -3.8804856   -1.4161502    2.4623690 
   1     1.4091140   -2.5396497    1.4161954 
   1    -1.0624501    4.3822438   -1.9778599 
   1     2.7410472    6.4961156   -0.2576509 
   1    -6.5180296   -3.7210701   -0.3992989 
   1    -7.6248989   -1.1375988   -1.6124038 
  29     9.7492186    3.7345165    1.7885462 
  29    13.2343558    0.8433263    3.6954202 
  29     9.0271768   -0.7863687    2.5824714 
  29    12.0815365    0.3611147   -0.8035353 
  29    14.1125419    5.2674075    3.0804961 
  29    12.9753625    4.7608774   -1.5785618 
  29    16.3946721    2.1679729    0.3536281 
  29    15.4945421   -2.2673764    1.0172055 
