#
# Number of atoms
#
 29
#
# The current total energy in Eh
#
 -13640.133012886505
#
# The current gradient in Eh/bohr
#
       0.000159588881
      -0.000079595054
       0.000253748710
      -0.000097016605
       0.000337006756
      -0.000144197179
       0.000037181671
       0.000111617705
       0.000001018003
       0.000201290446
       0.000134130940
       0.000142477193
       0.000067952301
      -0.000052680019
      -0.000143532879
      -0.000100831014
      -0.000057262945
      -0.000035709226
      -0.000072388048
       0.000092917163
       0.000016292527
       0.000005354014
      -0.000023747854
       0.000009420918
      -0.000064109732
      -0.000007047644
      -0.000017692050
      -0.000062701551
       0.000103702015
      -0.000053117267
       0.000265421081
      -0.000305160594
      -0.000073324537
      -0.000031431726
       0.000017280096
      -0.000047658408
      -0.000074147995
       0.000061973520
       0.000006098069
       0.000029180097
       0.000066493377
      -0.000042823144
       0.000064061851
       0.000056892265
      -0.000023587404
       0.000038459535
       0.000014528230
      -0.000007560610
       0.000048307405
       0.000046344947
      -0.000035052570
       0.000054256131
      -0.000001964100
      -0.000035183131
      -0.000012591083
       0.000041081829
      -0.000045692576
       0.000023310127
       0.000036649486
      -0.000053547682
      -0.000175387415
       0.000092555017
      -0.000232257212
       0.000053358951
      -0.000079652918
       0.000122213524
      -0.000044788868
       0.000202621142
       0.000091480179
       0.000147890350
      -0.000095736643
       0.000256777227
       0.000043011644
       0.000014788242
      -0.000095028414
       0.000123886331
      -0.000104569276
      -0.000019460277
       0.000206382959
      -0.000410926994
      -0.000019529092
      -0.000049169536
       0.000012415285
      -0.000063566945
      -0.000177927748
       0.000058054952
       0.000038371998
#
# The atomic numbers and current coordinates in Bohr
#
   8     5.5242816   -2.0601156   -1.1929382 
   8     6.3242626    2.9899922   -2.7285244 
   7    -7.3291902   -1.7447534    0.4276773 
   6    -3.0308567    0.0237605    1.6248067 
   6    -0.5080290    0.8404166    0.5918309 
   6    -4.8330266   -0.9205087   -0.4512720 
   6     1.4353978   -0.9124409    0.2117855 
   6    -0.0653301    3.3317097   -0.1356775 
   6     3.7217309   -0.2211136   -0.8646098 
   6     2.2274592    4.0434327   -1.2134414 
   6     4.1944580    2.3082777   -1.6368369 
   1    -3.9375797    1.6037196    2.6036209 
   1    -2.7868423   -1.4920281    3.0111476 
   1    -3.9444370   -2.4980033   -1.4467558 
   1    -5.1019506    0.5845034   -1.8416157 
   1     1.1754257   -2.8710567    0.7612325 
   1    -1.5292793    4.7401641    0.1408689 
   1     2.5478580    5.9894849   -1.7714059 
   1    -8.1915989   -0.3001181    1.3524882 
   1    -7.1231072   -3.1469539    1.7227240 
   1     7.1031961   -1.2631681   -1.7303250 
  29     9.8509489    1.9132793   -2.3981291 
  29    13.0157693   -1.6531629   -1.6738057 
  29    12.0233932   -0.2682470   -5.9222432 
  29    14.4554437    2.6921403   -3.3469498 
  29    11.2094813    0.3345857    1.9951151 
  29    12.6472991    4.6534878    0.3684921 
  29    15.7402860    1.1279365    0.8988366 
  29    17.4781433   -0.8588819   -2.8764784 
