#
# Number of atoms
#
 30
#
# The current total energy in Eh
#
 -13640.614595439443
#
# The current gradient in Eh/bohr
#
      -0.000030371847
      -0.000033465329
      -0.000117871630
      -0.000218628199
      -0.000000537868
      -0.000142029400
       0.000160681212
      -0.000206416075
      -0.000099068176
      -0.000134749085
       0.000038040098
       0.000174901978
       0.000155997612
       0.000107393781
       0.000113470155
      -0.000134158377
       0.000220789383
      -0.000101713416
       0.000145161169
      -0.000059745952
       0.000038119949
       0.000024070103
       0.000063612161
       0.000060145976
       0.000065542434
      -0.000112675538
       0.000084126631
       0.000056304561
       0.000190737703
      -0.000111661221
      -0.000010084159
      -0.000055517159
      -0.000053237615
       0.000037784548
      -0.000010736615
       0.000006370929
       0.000056477508
       0.000035199982
      -0.000022542120
       0.000110112568
      -0.000004808738
      -0.000061082336
      -0.000018965452
       0.000054447622
      -0.000043629340
       0.000013510267
      -0.000010942889
      -0.000045380479
      -0.000010041126
       0.000028295826
      -0.000057410924
       0.000020437979
      -0.000044615624
       0.000006412277
      -0.000009437884
      -0.000084484396
       0.000034504559
      -0.000037058982
      -0.000067886937
       0.000018993999
       0.000011001267
      -0.000026772174
       0.000014471519
      -0.000010978385
       0.000003319568
       0.000029338959
      -0.000171015580
      -0.000034135060
      -0.000218511374
       0.000322465233
      -0.000076928539
       0.000058729420
      -0.000111842529
       0.000029992572
       0.000036278284
      -0.000365853816
      -0.000124660439
       0.000144917832
       0.000073154149
       0.000045496714
      -0.000092860916
       0.000212199592
       0.000061284408
      -0.000119438105
      -0.000058178358
       0.000111690881
      -0.000018722564
       0.000123368299
      -0.000066013467
       0.000002729987
#
# The atomic numbers and current coordinates in Bohr
#
   6    -0.9909602   -0.8012948   -2.7194284 
   6    -3.7746529    2.9347118   -0.2819176 
   6    -3.4373679   -0.2619126   -3.5126616 
   6     0.0968611    0.4742408   -0.6873510 
   6    -1.3154181    2.3650855    0.5212208 
   6    -4.8420464    1.5930632   -2.2711003 
   8    -7.3524957    1.9611015   -2.8413404 
   8    -4.6379186   -1.4925909   -5.4262877 
   6     2.6758144   -0.2372229    0.2647743 
   6     2.5971441   -2.0979654    2.5092945 
   7     1.4802248   -4.5710101    2.0023884 
   1     0.0555346   -2.2743646   -3.6835840 
   1    -4.8617927    4.4154915    0.6156365 
   1    -0.4715192    3.4568215    2.0317856 
   1    -7.7539315    1.0822465   -4.4001601 
   1    -3.5709450   -2.8000521   -6.1272499 
   1     3.6837826    1.4605216    0.8740701 
   1     3.7730233   -1.0919474   -1.2621310 
   1     4.5333449   -2.3691339    3.1772363 
   1     1.5342105   -1.2372623    4.0584297 
   1     2.2126023   -5.3240763    0.3963076 
   1    -0.4178383   -4.4017862    1.7330568 
  29    -5.6691531   -4.4322893    0.9793425 
  29   -10.0662677   -4.8536377    2.5305259 
  29    -6.7894522   -8.0268087    3.6801889 
  29    -4.6946303   -4.2480519    5.5496538 
  29    -8.8192677   -0.9850457    0.3363939 
  29    -4.0904460   -0.4500379    2.9761599 
  29    -8.2376504   -1.3326925    4.9695125 
  29    -9.0245415   -5.4217836    7.0838359 
