#
# Number of atoms
#
 31
#
# The current total energy in Eh
#
 -13641.084321712893
#
# The current gradient in Eh/bohr
#
      -0.000097836112
       0.000087977179
       0.000101102536
       0.000103959792
      -0.000119984434
       0.000200875210
      -0.000017587031
       0.000023106202
       0.000134943190
      -0.000093227183
      -0.000257700589
       0.000004832268
      -0.000080585577
       0.000086709166
      -0.000057609920
      -0.000029065388
       0.000063540500
      -0.000041455553
       0.000057391606
       0.000005811049
      -0.000057289619
      -0.000032876298
       0.000027351821
      -0.000167877354
      -0.000054211462
      -0.000018118144
      -0.000015150127
      -0.000077122919
       0.000001807357
      -0.000101718682
      -0.000050779421
       0.000074354277
       0.000046285525
      -0.000045254741
      -0.000042229813
       0.000042665034
       0.000046604817
      -0.000012632452
      -0.000080269445
      -0.000004271917
      -0.000096638044
       0.000024167787
      -0.000012857894
       0.000015832745
       0.000084676796
      -0.000034083999
       0.000007367810
      -0.000074486578
       0.000091316863
       0.000095854750
      -0.000022642899
      -0.000003497229
       0.000024416608
       0.000057821918
       0.000059801922
       0.000017059244
       0.000113979727
       0.000018975599
      -0.000001428985
      -0.000000116353
      -0.000010863129
       0.000014866864
       0.000000967573
       0.000034017965
      -0.000035159812
       0.000024456211
      -0.000003053096
      -0.000037251075
      -0.000011897354
      -0.000119202234
       0.000035289618
      -0.000014466563
      -0.000236208214
      -0.000039980921
       0.000364013041
       0.000031151620
      -0.000042718341
      -0.000145305684
       0.000281410720
       0.000036427929
      -0.000206601400
       0.000080879338
       0.000001026725
       0.000067558789
       0.000052212896
      -0.000026350019
       0.000115079349
      -0.000120414185
      -0.000268003150
      -0.000065677493
       0.000087525344
       0.000224799283
      -0.000156608685
#
# The atomic numbers and current coordinates in Bohr
#
   6    -3.6759220   -2.4933768    1.5627527 
   6    -1.0692747    2.0479928    2.0564176 
   6    -4.7398758   -0.5383611    2.9596071 
   6    -1.2794423   -2.2038374    0.4663548 
   6     0.0593796    0.0515811    0.7242153 
   6    -3.4243903    1.7521077    3.1956907 
   8    -7.0387826   -0.8549595    4.0430761 
   8    -4.5911764    3.5693199    4.5838659 
   6     2.6961299    0.3321949   -0.3212718 
   6     2.9251832    1.9337918   -2.7038275 
   7     1.7173593    0.6756945   -4.9323894 
   1    -0.2267157    0.6078897   -4.7397529 
   1     2.0744117    1.6536032   -6.5575768 
   1     2.3570311   -1.1301218   -5.1820834 
   1    -4.6770765   -4.2729226    1.4370866 
   1    -0.0460942    3.8015075    2.3426737 
   1    -0.4295140   -3.7845113   -0.5141178 
   1    -7.5546648    0.7102277    4.8421165 
   1    -3.5943108    5.1011438    4.6254805 
   1     3.4930321   -1.5355730   -0.6915203 
   1     3.9009494    1.2269217    1.0946357 
   1     1.9995127    3.7601773   -2.4946151 
   1     4.9002331    2.2287135   -3.1893880 
  29    -6.7794661    5.8621990   -4.5933627 
  29    -4.3033919    2.2498461   -6.1191994 
  29    -3.6265982    3.8304443   -1.7955040 
  29    -8.0431549    2.2530824   -1.8638308 
  29    -7.7689542    3.6862611   -8.7585088 
  29   -10.9193641    3.6317290   -5.1525179 
  29    -8.2171693   -0.1617916   -5.8895145 
  29    -4.7634097   -1.0072346   -2.8217614 
