#
# Number of atoms
#
 30
#
# The current total energy in Eh
#
 -13640.602788239728
#
# The current gradient in Eh/bohr
#
      -0.000179364694
      -0.000023344500
       0.000066823871
       0.000137922056
       0.000052158028
      -0.000089044752
      -0.000031456348
      -0.000162556703
       0.000145762905
      -0.000132487064
      -0.000104494835
      -0.000064144971
       0.000011735056
      -0.000003551678
       0.000013299023
       0.000082334585
       0.000046964129
      -0.000041987503
      -0.000024785829
       0.000051684863
      -0.000060656461
       0.000039144286
       0.000004384129
       0.000034448488
       0.000024202919
       0.000012179276
       0.000034992210
      -0.000057379228
      -0.000039394782
       0.000020062942
      -0.000162600027
      -0.000004654200
       0.000065908044
       0.000086209507
       0.000080801870
      -0.000042426355
       0.000049887888
       0.000356918673
       0.000019455064
      -0.000032024901
      -0.000375579746
      -0.000086234279
       0.000094535871
      -0.000155938622
      -0.000091008941
      -0.000046313711
      -0.000009713564
      -0.000013887506
      -0.000058499916
       0.000017725381
      -0.000011169547
      -0.000029720062
      -0.000020193602
      -0.000001938909
      -0.000045684486
       0.000004771870
      -0.000010410570
      -0.000017145235
       0.000032440272
       0.000058921411
       0.000061244206
       0.000086668762
      -0.000075495629
      -0.000090984926
       0.000017986905
      -0.000066373573
      -0.000350105857
       0.000434938227
       0.000173566286
       0.000092279876
      -0.000065065971
      -0.000008556319
       0.000356622615
      -0.000472395622
      -0.000331440600
       0.000281114101
      -0.000050238833
       0.000051149435
      -0.000116716472
       0.000256867507
       0.000115200433
      -0.000168134316
       0.000036696651
       0.000030032010
       0.000228852567
       0.000032338982
       0.000410415756
      -0.000234559601
      -0.000077519546
      -0.000663527233
#
# The atomic numbers and current coordinates in Bohr
#
   8     6.6219780   -1.9520198    2.0252395 
   6     4.8725553   -0.5763765    0.7059515 
   6     2.4765271   -1.5888563    0.4250060 
   6     0.5715595   -0.3006883   -0.8850390 
   6    -2.0580660   -1.3844179   -1.0632727 
   6    -3.5626425   -1.0567194    1.3748394 
   7    -3.7303154    1.6913362    2.0607300 
   1    -4.5539129    1.9510827    3.7855373 
   1    -1.9598702    2.4733892    2.1103758 
   1    -4.7587568    2.6807198    0.7596912 
   6     1.1565360    2.0519753   -1.9089054 
   6     3.5627872    3.0851088   -1.6344624 
   6     5.5048280    1.8361472   -0.3190407 
   8     7.7492300    2.8501290   -0.0264678 
   1     8.2641808   -1.0997515    1.9648487 
   1     2.0968526   -3.4266891    1.2512085 
   1    -3.0895797   -0.4926250   -2.6142892 
   1    -2.0043876   -3.4101607   -1.4555065 
   1    -5.4904141   -1.7490730    1.1986252 
   1    -2.6427744   -1.9929478    2.9573330 
   1    -0.2750094    3.0904331   -2.9452520 
   1     3.9921810    4.9172874   -2.4446999 
  29    11.2246644    1.5059886    0.2484494 
  29    13.6949045   -2.3248174    1.7380292 
  29    13.4943526   -1.5392122   -2.7541495 
  29    15.8929545    1.6473890   -0.5360632 
  29    12.3447061    0.5217652    4.9543754 
  29    14.4246106    4.2603610    2.8438903 
  29    16.9869179    0.3013492    3.7979974 
  29    18.0693930   -2.3903538    0.1437020 
