2		 # Number of atoms 
202		 # Number of surface points
2		 # Surface type
0		 # Epsilon function type
1		 # Print level
0		 # FEps X flag     

110		 # Number of Leb. points     

     0.000000000	 # FEps X parameter

     4.901000000	 # xi_gen

   249.704053984	 # Volume
   212.959938068	 # Area

    -0.010565474	 # CPCM dielectric energy
     0.493976196	 # One-electron operator energy

#--------------------------------------------
# CARTESIAN COORDINATES (A.U.) + RADII (A.U.)
#--------------------------------------------
    -4.970005752       0.000000000      -7.083862870      3.174739905
    -4.970005752       0.000000000     -11.426224390      3.174739905

#------------------------------------------------------------
# SURFACE POINTS (A.U.)    (Hint - charge NOT scaled by FEps)
#------------------------------------------------------------
          X                 Y                 Z               area            potential          charge            w_leb             Switch_F          G_width       atom
    -1.795265847      -0.000000000      -7.083862870       0.484873872       0.010018443       0.000153944       0.048107466  1.00000000000000  7.03834111959330      0
    -8.144745657       0.000000000      -7.083862870       0.484873872       0.010018440       0.000153944       0.048107466  1.00000000000000  7.03834111959330      0
    -4.970005752       3.174739905      -7.083862870       0.484873872       0.010018435       0.000153944       0.048107466  1.00000000000000  7.03834111959330      0
    -4.970005752      -3.174739905      -7.083862870       0.484873872       0.010018436       0.000153944       0.048107466  1.00000000000000  7.03834111959330      0
    -4.970005752       0.000000000      -3.909122965       0.484873872       0.081044201      -0.002814770       0.048107466  1.00000000000000  7.03834111959330      0
    -3.137068813       1.832936939      -5.250925932       1.240436754       0.049626933      -0.003575143       0.123071735  1.00000000000000  4.40045302828328      0
    -6.802942691       1.832936939      -5.250925932       1.240436754       0.049626931      -0.003575143       0.123071735  1.00000000000000  4.40045302828328      0
    -3.137068813      -1.832936939      -5.250925932       1.240436754       0.049626935      -0.003575144       0.123071735  1.00000000000000  4.40045302828328      0
    -6.802942691      -1.832936939      -5.250925932       1.240436754       0.049626933      -0.003575143       0.123071735  1.00000000000000  4.40045302828328      0
    -3.137068813       1.832936939      -8.916799809       1.236074729      -0.023342117       0.004225488       0.123071735  0.99648347673893  4.40045302828328      0
    -6.802942691       1.832936939      -8.916799809       1.236074729      -0.023342117       0.004225488       0.123071735  0.99648347673893  4.40045302828328      0
    -3.137068813      -1.832936939      -8.916799809       1.236074729      -0.023342118       0.004225489       0.123071735  0.99648347673893  4.40045302828328      0
    -6.802942691      -1.832936939      -8.916799809       1.236074729      -0.023342118       0.004225488       0.123071735  0.99648347673893  4.40045302828328      0
    -4.382311757       0.587693995      -4.019845083       1.040066750       0.078314094      -0.005462159       0.103191734  1.00000000000000  4.80567167445524      0
    -5.557699746       0.587693995      -4.019845083       1.040066750       0.078314094      -0.005462159       0.103191734  1.00000000000000  4.80567167445524      0
    -4.382311757      -0.587693995      -4.019845083       1.040066750       0.078314095      -0.005462160       0.103191734  1.00000000000000  4.80567167445524      0
    -5.557699746      -0.587693995      -4.019845083       1.040066750       0.078314094      -0.005462159       0.103191734  1.00000000000000  4.80567167445524      0
    -4.382311757       3.064017787      -6.496168876       1.040066750       0.022619733      -0.000777940       0.103191734  1.00000000000000  4.80567167445524      0
    -5.557699746       3.064017787      -6.496168876       1.040066750       0.022619732      -0.000777940       0.103191734  1.00000000000000  4.80567167445524      0
    -4.382311757      -3.064017787      -6.496168876       1.040066750       0.022619734      -0.000777941       0.103191734  1.00000000000000  4.80567167445524      0
    -5.557699746      -3.064017787      -6.496168876       1.040066750       0.022619733      -0.000777940       0.103191734  1.00000000000000  4.80567167445524      0
    -4.382311757       3.064017787      -7.671556865       1.040066750      -0.002677838       0.001632474       0.103191734  1.00000000000000  4.80567167445524      0
    -5.557699746       3.064017787      -7.671556865       1.040066750      -0.002677839       0.001632474       0.103191734  1.00000000000000  4.80567167445524      0
    -4.382311757      -3.064017787      -7.671556865       1.040066750      -0.002677838       0.001632474       0.103191734  1.00000000000000  4.80567167445524      0
    -5.557699746      -3.064017787      -7.671556865       1.040066750      -0.002677838       0.001632474       0.103191734  1.00000000000000  4.80567167445524      0
    -1.905987964       0.587693995      -6.496168876       1.040066750       0.022619740      -0.000777941       0.103191734  1.00000000000000  4.80567167445524      0
    -8.034023539       0.587693995      -6.496168876       1.040066750       0.022619737      -0.000777941       0.103191734  1.00000000000000  4.80567167445524      0
    -1.905987964      -0.587693995      -6.496168876       1.040066750       0.022619740      -0.000777941       0.103191734  1.00000000000000  4.80567167445524      0
    -8.034023539      -0.587693995      -6.496168876       1.040066750       0.022619737      -0.000777941       0.103191734  1.00000000000000  4.80567167445524      0
    -1.905987964       0.587693995      -7.671556865       1.040066750      -0.002677830       0.001632473       0.103191734  1.00000000000000  4.80567167445524      0
    -8.034023539       0.587693995      -7.671556865       1.040066750      -0.002677833       0.001632473       0.103191734  1.00000000000000  4.80567167445524      0
    -1.905987964      -0.587693995      -7.671556865       1.040066750      -0.002677830       0.001632473       0.103191734  1.00000000000000  4.80567167445524      0
    -8.034023539      -0.587693995      -7.671556865       1.040066750      -0.002677832       0.001632473       0.103191734  1.00000000000000  4.80567167445524      0
    -2.778098498       2.191907254      -6.398254638       1.259318316       0.024713705      -0.001151597       0.124945097  1.00000000000000  4.36733938899170      0
    -7.161913005       2.191907254      -6.398254638       1.259318316       0.024713703      -0.001151597       0.124945097  1.00000000000000  4.36733938899170      0
    -2.778098498      -2.191907254      -6.398254638       1.259318316       0.024713706      -0.001151597       0.124945097  1.00000000000000  4.36733938899170      0
    -7.161913005      -2.191907254      -6.398254638       1.259318316       0.024713704      -0.001151597       0.124945097  1.00000000000000  4.36733938899170      0
    -2.778098498       2.191907254      -7.769471103       1.259318316      -0.004786607       0.002287069       0.124945097  1.00000000000000  4.36733938899170      0
    -7.161913005       2.191907254      -7.769471103       1.259318316      -0.004786610       0.002287069       0.124945097  1.00000000000000  4.36733938899170      0
    -2.778098498      -2.191907254      -7.769471103       1.259318316      -0.004786608       0.002287069       0.124945097  1.00000000000000  4.36733938899170      0
    -7.161913005      -2.191907254      -7.769471103       1.259318316      -0.004786609       0.002287069       0.124945097  1.00000000000000  4.36733938899170      0
    -2.778098498       0.685608232      -4.891955617       1.259318316       0.057712827      -0.004450605       0.124945097  1.00000000000000  4.36733938899170      0
    -7.161913005       0.685608232      -4.891955617       1.259318316       0.057712824      -0.004450605       0.124945097  1.00000000000000  4.36733938899170      0
    -2.778098498      -0.685608232      -4.891955617       1.259318316       0.057712828      -0.004450605       0.124945097  1.00000000000000  4.36733938899170      0
    -7.161913005      -0.685608232      -4.891955617       1.259318316       0.057712825      -0.004450605       0.124945097  1.00000000000000  4.36733938899170      0
    -2.778098498       0.685608232      -9.275770124       0.541749054      -0.016835789       0.000489786       0.124945097  0.43019230865693  4.36733938899170      0
    -7.161913005       0.685608232      -9.275770124       0.541749054      -0.016835788       0.000489786       0.124945097  0.43019230865693  4.36733938899170      0
    -2.778098498      -0.685608232      -9.275770124       0.541749054      -0.016835790       0.000489786       0.124945097  0.43019230865693  4.36733938899170      0
    -7.161913005      -0.685608232      -9.275770124       0.541749054      -0.016835789       0.000489786       0.124945097  0.43019230865693  4.36733938899170      0
    -4.284397520       2.191907254      -4.891955617       1.259318316       0.057712823      -0.004450605       0.124945097  1.00000000000000  4.36733938899170      0
    -5.655613984       2.191907254      -4.891955617       1.259318316       0.057712822      -0.004450605       0.124945097  1.00000000000000  4.36733938899170      0
    -4.284397520      -2.191907254      -4.891955617       1.259318316       0.057712826      -0.004450605       0.124945097  1.00000000000000  4.36733938899170      0
    -5.655613984      -2.191907254      -4.891955617       1.259318316       0.057712825      -0.004450605       0.124945097  1.00000000000000  4.36733938899170      0
    -4.284397520       2.191907254      -9.275770124       0.541749054      -0.016835795       0.000489787       0.124945097  0.43019230865693  4.36733938899170      0
    -5.655613984       2.191907254      -9.275770124       0.541749054      -0.016835794       0.000489787       0.124945097  0.43019230865693  4.36733938899170      0
    -4.284397520      -2.191907254      -9.275770124       0.541749054      -0.016835797       0.000489787       0.124945097  0.43019230865693  4.36733938899170      0
    -5.655613984      -2.191907254      -9.275770124       0.541749054      -0.016835797       0.000489787       0.124945097  0.43019230865693  4.36733938899170      0
    -3.713794592       1.256211160      -4.452733739       1.215325130       0.067899507      -0.005325301       0.120580249  1.00000000000000  4.44568270661112      0
    -6.226216912       1.256211160      -4.452733739       1.215325130       0.067899506      -0.005325301       0.120580249  1.00000000000000  4.44568270661112      0
    -3.713794592      -1.256211160      -4.452733739       1.215325130       0.067899509      -0.005325301       0.120580249  1.00000000000000  4.44568270661112      0
    -6.226216912      -1.256211160      -4.452733739       1.215325130       0.067899507      -0.005325301       0.120580249  1.00000000000000  4.44568270661112      0
    -3.713794592       1.256211160      -9.714992002       0.000005176       0.041380141      -0.000000061       0.120580249  0.00000425860827  4.44568270661112      0
    -6.226216912       1.256211160      -9.714992002       0.000005176       0.041380146      -0.000000061       0.120580249  0.00000425860827  4.44568270661112      0
    -3.713794592      -1.256211160      -9.714992002       0.000005176       0.041380141      -0.000000061       0.120580249  0.00000425860827  4.44568270661112      0
    -6.226216912      -1.256211160      -9.714992002       0.000005176       0.041380142      -0.000000061       0.120580249  0.00000425860827  4.44568270661112      0
    -3.713794592       2.631129132      -5.827651710       1.215325130       0.036979654      -0.002282320       0.120580249  1.00000000000000  4.44568270661112      0
    -6.226216912       2.631129132      -5.827651710       1.215325130       0.036979653      -0.002282320       0.120580249  1.00000000000000  4.44568270661112      0
    -3.713794592      -2.631129132      -5.827651710       1.215325130       0.036979656      -0.002282320       0.120580249  1.00000000000000  4.44568270661112      0
    -6.226216912      -2.631129132      -5.827651710       1.215325130       0.036979654      -0.002282320       0.120580249  1.00000000000000  4.44568270661112      0
    -3.713794592       2.631129132      -8.340074031       1.215325130      -0.016469763       0.004175979       0.120580249  0.99999999999167  4.44568270661112      0
    -6.226216912       2.631129132      -8.340074031       1.215325130      -0.016469764       0.004175979       0.120580249  0.99999999999167  4.44568270661112      0
    -3.713794592      -2.631129132      -8.340074031       1.215325130      -0.016469765       0.004175979       0.120580249  0.99999999999167  4.44568270661112      0
    -6.226216912      -2.631129132      -8.340074031       1.215325130      -0.016469765       0.004175979       0.120580249  0.99999999999167  4.44568270661112      0
    -2.338876620       1.256211160      -5.827651710       1.215325130       0.036979658      -0.002282320       0.120580249  1.00000000000000  4.44568270661112      0
    -7.601134883       1.256211160      -5.827651710       1.215325130       0.036979655      -0.002282320       0.120580249  1.00000000000000  4.44568270661112      0
    -2.338876620      -1.256211160      -5.827651710       1.215325130       0.036979659      -0.002282320       0.120580249  1.00000000000000  4.44568270661112      0
    -7.601134883      -1.256211160      -5.827651710       1.215325130       0.036979656      -0.002282320       0.120580249  1.00000000000000  4.44568270661112      0
    -2.338876620       1.256211160      -8.340074031       1.215325130      -0.016469758       0.004175978       0.120580249  0.99999999999167  4.44568270661112      0
    -7.601134883       1.256211160      -8.340074031       1.215325130      -0.016469760       0.004175979       0.120580249  0.99999999999167  4.44568270661112      0
    -2.338876620      -1.256211160      -8.340074031       1.215325130      -0.016469759       0.004175979       0.120580249  0.99999999999167  4.44568270661112      0
    -7.601134883      -1.256211160      -8.340074031       1.215325130      -0.016469760       0.004175979       0.120580249  0.99999999999167  4.44568270661112      0
    -3.451308507       2.787926136      -7.083862870       1.227930583       0.010017510       0.000386333       0.121830917  1.00000000000000  4.42280502536590      0
    -6.488702997       2.787926136      -7.083862870       1.227930583       0.010017509       0.000386333       0.121830917  1.00000000000000  4.42280502536590      0
    -3.451308507      -2.787926136      -7.083862870       1.227930583       0.010017511       0.000386332       0.121830917  1.00000000000000  4.42280502536590      0
    -6.488702997      -2.787926136      -7.083862870       1.227930583       0.010017510       0.000386333       0.121830917  1.00000000000000  4.42280502536590      0
    -2.182079615       1.518697245      -7.083862870       1.227930583       0.010017515       0.000386332       0.121830917  1.00000000000000  4.42280502536590      0
    -7.757931888       1.518697245      -7.083862870       1.227930583       0.010017512       0.000386332       0.121830917  1.00000000000000  4.42280502536590      0
    -2.182079615      -1.518697245      -7.083862870       1.227930583       0.010017515       0.000386332       0.121830917  1.00000000000000  4.42280502536590      0
    -7.757931888      -1.518697245      -7.083862870       1.227930583       0.010017513       0.000386332       0.121830917  1.00000000000000  4.42280502536590      0
    -3.451308507      -0.000000000      -4.295936734       1.227930583       0.071625929      -0.005781208       0.121830917  1.00000000000000  4.42280502536590      0
    -6.488702997       0.000000000      -4.295936734       1.227930583       0.071625927      -0.005781208       0.121830917  1.00000000000000  4.42280502536590      0
    -2.182079615      -0.000000000      -5.565165625       1.227930583       0.042692936      -0.002853897       0.121830917  1.00000000000000  4.42280502536590      0
    -7.757931888       0.000000000      -5.565165625       1.227930583       0.042692933      -0.002853897       0.121830917  1.00000000000000  4.42280502536590      0
    -2.182079615      -0.000000000      -8.602560115       1.227930155      -0.020800125       0.005079271       0.121830917  0.99999965139551  4.42280502536590      0
    -7.757931888       0.000000000      -8.602560115       1.227930155      -0.020800125       0.005079271       0.121830917  0.99999965139551  4.42280502536590      0
    -4.970005752       1.518697245      -4.295936734       1.227930583       0.071625926      -0.005781208       0.121830917  1.00000000000000  4.42280502536590      0
    -4.970005752      -1.518697245      -4.295936734       1.227930583       0.071625928      -0.005781208       0.121830917  1.00000000000000  4.42280502536590      0
    -4.970005752       2.787926136      -5.565165625       1.227930583       0.042692929      -0.002853896       0.121830917  1.00000000000000  4.42280502536590      0
    -4.970005752      -2.787926136      -5.565165625       1.227930583       0.042692932      -0.002853897       0.121830917  1.00000000000000  4.42280502536590      0
    -4.970005752       2.787926136      -8.602560115       1.227930155      -0.020800132       0.005079272       0.121830917  0.99999965139551  4.42280502536590      0
    -4.970005752      -2.787926136      -8.602560115       1.227930155      -0.020800133       0.005079273       0.121830917  0.99999965139551  4.42280502536590      0
    -1.795265847      -0.000000000     -11.426224390       0.484873872       0.010018498       0.000153942       0.048107466  1.00000000000000  7.03834111959330      1
    -8.144745657       0.000000000     -11.426224390       0.484873872       0.010018498       0.000153942       0.048107466  1.00000000000000  7.03834111959330      1
    -4.970005752       3.174739905     -11.426224390       0.484873872       0.010018489       0.000153943       0.048107466  1.00000000000000  7.03834111959330      1
    -4.970005752      -3.174739905     -11.426224390       0.484873872       0.010018487       0.000153943       0.048107466  1.00000000000000  7.03834111959330      1
    -4.970005752      -0.000000000     -14.600964295       0.484873872       0.081044249      -0.002814770       0.048107466  1.00000000000000  7.03834111959330      1
    -3.137068813       1.832936939      -9.593287452       1.236074729      -0.023342104       0.004225487       0.123071735  0.99648347673893  4.40045302828328      1
    -6.802942691       1.832936939      -9.593287452       1.236074729      -0.023342102       0.004225486       0.123071735  0.99648347673893  4.40045302828328      1
    -3.137068813      -1.832936939      -9.593287452       1.236074729      -0.023342105       0.004225487       0.123071735  0.99648347673893  4.40045302828328      1
    -6.802942691      -1.832936939      -9.593287452       1.236074729      -0.023342105       0.004225486       0.123071735  0.99648347673893  4.40045302828328      1
    -3.137068813       1.832936939     -13.259161329       1.240436754       0.049626994      -0.003575147       0.123071735  1.00000000000000  4.40045302828328      1
    -6.802942691       1.832936939     -13.259161329       1.240436754       0.049626994      -0.003575147       0.123071735  1.00000000000000  4.40045302828328      1
    -3.137068813      -1.832936939     -13.259161329       1.240436754       0.049626995      -0.003575147       0.123071735  1.00000000000000  4.40045302828328      1
    -6.802942691      -1.832936939     -13.259161329       1.240436754       0.049626994      -0.003575147       0.123071735  1.00000000000000  4.40045302828328      1
    -4.382311757       0.587693995     -14.490242178       1.040066750       0.078314144      -0.005462160       0.103191734  1.00000000000000  4.80567167445524      1
    -5.557699746       0.587693995     -14.490242178       1.040066750       0.078314143      -0.005462160       0.103191734  1.00000000000000  4.80567167445524      1
    -4.382311757      -0.587693995     -14.490242178       1.040066750       0.078314144      -0.005462160       0.103191734  1.00000000000000  4.80567167445524      1
    -5.557699746      -0.587693995     -14.490242178       1.040066750       0.078314144      -0.005462160       0.103191734  1.00000000000000  4.80567167445524      1
    -4.382311757       3.064017787     -10.838530396       1.040066750      -0.002677793       0.001632471       0.103191734  1.00000000000000  4.80567167445524      1
    -5.557699746       3.064017787     -10.838530396       1.040066750      -0.002677792       0.001632470       0.103191734  1.00000000000000  4.80567167445524      1
    -4.382311757      -3.064017787     -10.838530396       1.040066750      -0.002677795       0.001632471       0.103191734  1.00000000000000  4.80567167445524      1
    -5.557699746      -3.064017787     -10.838530396       1.040066750      -0.002677795       0.001632471       0.103191734  1.00000000000000  4.80567167445524      1
    -4.382311757       3.064017787     -12.013918385       1.040066750       0.022619791      -0.000777944       0.103191734  1.00000000000000  4.80567167445524      1
    -5.557699746       3.064017787     -12.013918385       1.040066750       0.022619792      -0.000777944       0.103191734  1.00000000000000  4.80567167445524      1
    -4.382311757      -3.064017787     -12.013918385       1.040066750       0.022619790      -0.000777944       0.103191734  1.00000000000000  4.80567167445524      1
    -5.557699746      -3.064017787     -12.013918385       1.040066750       0.022619790      -0.000777944       0.103191734  1.00000000000000  4.80567167445524      1
    -1.905987964       0.587693995     -10.838530396       1.040066750      -0.002677784       0.001632470       0.103191734  1.00000000000000  4.80567167445524      1
    -8.034023539       0.587693995     -10.838530396       1.040066750      -0.002677784       0.001632469       0.103191734  1.00000000000000  4.80567167445524      1
    -1.905987964      -0.587693995     -10.838530396       1.040066750      -0.002677785       0.001632470       0.103191734  1.00000000000000  4.80567167445524      1
    -8.034023539      -0.587693995     -10.838530396       1.040066750      -0.002677785       0.001632470       0.103191734  1.00000000000000  4.80567167445524      1
    -1.905987964       0.587693995     -12.013918385       1.040066750       0.022619801      -0.000777945       0.103191734  1.00000000000000  4.80567167445524      1
    -8.034023539       0.587693995     -12.013918385       1.040066750       0.022619800      -0.000777945       0.103191734  1.00000000000000  4.80567167445524      1
    -1.905987964      -0.587693995     -12.013918385       1.040066750       0.022619801      -0.000777945       0.103191734  1.00000000000000  4.80567167445524      1
    -8.034023539      -0.587693995     -12.013918385       1.040066750       0.022619799      -0.000777945       0.103191734  1.00000000000000  4.80567167445524      1
    -2.778098498       2.191907254     -10.740616158       1.259318316      -0.004786565       0.002287065       0.124945097  1.00000000000000  4.36733938899170      1
    -7.161913005       2.191907254     -10.740616158       1.259318316      -0.004786563       0.002287064       0.124945097  1.00000000000000  4.36733938899170      1
    -2.778098498      -2.191907254     -10.740616158       1.259318316      -0.004786565       0.002287065       0.124945097  1.00000000000000  4.36733938899170      1
    -7.161913005      -2.191907254     -10.740616158       1.259318316      -0.004786566       0.002287065       0.124945097  1.00000000000000  4.36733938899170      1
    -2.778098498       2.191907254     -12.111832622       1.259318316       0.024713764      -0.001151602       0.124945097  1.00000000000000  4.36733938899170      1
    -7.161913005       2.191907254     -12.111832622       1.259318316       0.024713765      -0.001151602       0.124945097  1.00000000000000  4.36733938899170      1
    -2.778098498      -2.191907254     -12.111832622       1.259318316       0.024713765      -0.001151602       0.124945097  1.00000000000000  4.36733938899170      1
    -7.161913005      -2.191907254     -12.111832622       1.259318316       0.024713763      -0.001151602       0.124945097  1.00000000000000  4.36733938899170      1
    -2.778098498       0.685608232      -9.234317137       0.541749054      -0.016835790       0.000489786       0.124945097  0.43019230865692  4.36733938899170      1
    -7.161913005       0.685608232      -9.234317137       0.541749054      -0.016835789       0.000489786       0.124945097  0.43019230865692  4.36733938899170      1
    -2.778098498      -0.685608232      -9.234317137       0.541749054      -0.016835791       0.000489786       0.124945097  0.43019230865692  4.36733938899170      1
    -7.161913005      -0.685608232      -9.234317137       0.541749054      -0.016835789       0.000489786       0.124945097  0.43019230865692  4.36733938899170      1
    -2.778098498       0.685608232     -13.618131644       1.259318316       0.057712887      -0.004450609       0.124945097  1.00000000000000  4.36733938899170      1
    -7.161913005       0.685608232     -13.618131644       1.259318316       0.057712885      -0.004450608       0.124945097  1.00000000000000  4.36733938899170      1
    -2.778098498      -0.685608232     -13.618131644       1.259318316       0.057712887      -0.004450609       0.124945097  1.00000000000000  4.36733938899170      1
    -7.161913005      -0.685608232     -13.618131644       1.259318316       0.057712885      -0.004450609       0.124945097  1.00000000000000  4.36733938899170      1
    -4.284397520       2.191907254      -9.234317137       0.541749054      -0.016835796       0.000489787       0.124945097  0.43019230865692  4.36733938899170      1
    -5.655613984       2.191907254      -9.234317137       0.541749054      -0.016835795       0.000489787       0.124945097  0.43019230865692  4.36733938899170      1
    -4.284397520      -2.191907254      -9.234317137       0.541749054      -0.016835798       0.000489787       0.124945097  0.43019230865692  4.36733938899170      1
    -5.655613984      -2.191907254      -9.234317137       0.541749054      -0.016835797       0.000489787       0.124945097  0.43019230865692  4.36733938899170      1
    -4.284397520       2.191907254     -13.618131644       1.259318316       0.057712881      -0.004450608       0.124945097  1.00000000000000  4.36733938899170      1
    -5.655613984       2.191907254     -13.618131644       1.259318316       0.057712881      -0.004450608       0.124945097  1.00000000000000  4.36733938899170      1
    -4.284397520      -2.191907254     -13.618131644       1.259318316       0.057712882      -0.004450608       0.124945097  1.00000000000000  4.36733938899170      1
    -5.655613984      -2.191907254     -13.618131644       1.259318316       0.057712882      -0.004450608       0.124945097  1.00000000000000  4.36733938899170      1
    -3.713794592       1.256211160      -8.795095259       0.000005176       0.041380124      -0.000000061       0.120580249  0.00000425860827  4.44568270661112      1
    -6.226216912       1.256211160      -8.795095259       0.000005176       0.041380125      -0.000000061       0.120580249  0.00000425860827  4.44568270661112      1
    -3.713794592      -1.256211160      -8.795095259       0.000005176       0.041380123      -0.000000061       0.120580249  0.00000425860827  4.44568270661112      1
    -6.226216912      -1.256211160      -8.795095259       0.000005176       0.041380124      -0.000000061       0.120580249  0.00000425860827  4.44568270661112      1
    -3.713794592       1.256211160     -14.057353522       1.215325130       0.067899562      -0.005325303       0.120580249  1.00000000000000  4.44568270661112      1
    -6.226216912       1.256211160     -14.057353522       1.215325130       0.067899561      -0.005325303       0.120580249  1.00000000000000  4.44568270661112      1
    -3.713794592      -1.256211160     -14.057353522       1.215325130       0.067899563      -0.005325303       0.120580249  1.00000000000000  4.44568270661112      1
    -6.226216912      -1.256211160     -14.057353522       1.215325130       0.067899562      -0.005325303       0.120580249  1.00000000000000  4.44568270661112      1
    -3.713794592       2.631129132     -10.170013230       1.215325130      -0.016469733       0.004175976       0.120580249  0.99999999999167  4.44568270661112      1
    -6.226216912       2.631129132     -10.170013230       1.215325130      -0.016469731       0.004175976       0.120580249  0.99999999999167  4.44568270661112      1
    -3.713794592      -2.631129132     -10.170013230       1.215325130      -0.016469735       0.004175976       0.120580249  0.99999999999167  4.44568270661112      1
    -6.226216912      -2.631129132     -10.170013230       1.215325130      -0.016469735       0.004175976       0.120580249  0.99999999999167  4.44568270661112      1
    -3.713794592       2.631129132     -12.682435550       1.215325130       0.036979715      -0.002282324       0.120580249  1.00000000000000  4.44568270661112      1
    -6.226216912       2.631129132     -12.682435550       1.215325130       0.036979715      -0.002282324       0.120580249  1.00000000000000  4.44568270661112      1
    -3.713794592      -2.631129132     -12.682435550       1.215325130       0.036979715      -0.002282324       0.120580249  1.00000000000000  4.44568270661112      1
    -6.226216912      -2.631129132     -12.682435550       1.215325130       0.036979714      -0.002282324       0.120580249  1.00000000000000  4.44568270661112      1
    -2.338876620       1.256211160     -10.170013230       1.215325130      -0.016469728       0.004175975       0.120580249  0.99999999999167  4.44568270661112      1
    -7.601134883       1.256211160     -10.170013230       1.215325130      -0.016469726       0.004175975       0.120580249  0.99999999999167  4.44568270661112      1
    -2.338876620      -1.256211160     -10.170013230       1.215325130      -0.016469728       0.004175975       0.120580249  0.99999999999167  4.44568270661112      1
    -7.601134883      -1.256211160     -10.170013230       1.215325130      -0.016469728       0.004175975       0.120580249  0.99999999999167  4.44568270661112      1
    -2.338876620       1.256211160     -12.682435550       1.215325130       0.036979721      -0.002282325       0.120580249  1.00000000000000  4.44568270661112      1
    -7.601134883       1.256211160     -12.682435550       1.215325130       0.036979721      -0.002282325       0.120580249  1.00000000000000  4.44568270661112      1
    -2.338876620      -1.256211160     -12.682435550       1.215325130       0.036979721      -0.002282325       0.120580249  1.00000000000000  4.44568270661112      1
    -7.601134883      -1.256211160     -12.682435550       1.215325130       0.036979720      -0.002282325       0.120580249  1.00000000000000  4.44568270661112      1
    -3.451308507       2.787926136     -11.426224390       1.227930583       0.010017563       0.000386328       0.121830917  1.00000000000000  4.42280502536590      1
    -6.488702997       2.787926136     -11.426224390       1.227930583       0.010017565       0.000386328       0.121830917  1.00000000000000  4.42280502536590      1
    -3.451308507      -2.787926136     -11.426224390       1.227930583       0.010017563       0.000386328       0.121830917  1.00000000000000  4.42280502536590      1
    -6.488702997      -2.787926136     -11.426224390       1.227930583       0.010017562       0.000386328       0.121830917  1.00000000000000  4.42280502536590      1
    -2.182079615       1.518697245     -11.426224390       1.227930583       0.010017569       0.000386327       0.121830917  1.00000000000000  4.42280502536590      1
    -7.757931888       1.518697245     -11.426224390       1.227930583       0.010017570       0.000386327       0.121830917  1.00000000000000  4.42280502536590      1
    -2.182079615      -1.518697245     -11.426224390       1.227930583       0.010017569       0.000386327       0.121830917  1.00000000000000  4.42280502536590      1
    -7.757931888      -1.518697245     -11.426224390       1.227930583       0.010017568       0.000386328       0.121830917  1.00000000000000  4.42280502536590      1
    -3.451308507      -0.000000000     -14.214150527       1.227930583       0.071625983      -0.005781210       0.121830917  1.00000000000000  4.42280502536590      1
    -6.488702997       0.000000000     -14.214150527       1.227930583       0.071625982      -0.005781210       0.121830917  1.00000000000000  4.42280502536590      1
    -2.182079615      -0.000000000      -9.907527145       1.227930155      -0.020800101       0.005079269       0.121830917  0.99999965139551  4.42280502536590      1
    -7.757931888       0.000000000      -9.907527145       1.227930155      -0.020800100       0.005079268       0.121830917  0.99999965139551  4.42280502536590      1
    -2.182079615      -0.000000000     -12.944921635       1.227930583       0.042692999      -0.002853902       0.121830917  1.00000000000000  4.42280502536590      1
    -7.757931888       0.000000000     -12.944921635       1.227930583       0.042692998      -0.002853901       0.121830917  1.00000000000000  4.42280502536590      1
    -4.970005752       1.518697245     -14.214150527       1.227930583       0.071625979      -0.005781209       0.121830917  1.00000000000000  4.42280502536590      1
    -4.970005752      -1.518697245     -14.214150527       1.227930583       0.071625980      -0.005781209       0.121830917  1.00000000000000  4.42280502536590      1
    -4.970005752       2.787926136      -9.907527145       1.227930155      -0.020800108       0.005079270       0.121830917  0.99999965139551  4.42280502536590      1
    -4.970005752      -2.787926136      -9.907527145       1.227930155      -0.020800111       0.005079270       0.121830917  0.99999965139551  4.42280502536590      1
    -4.970005752       2.787926136     -12.944921635       1.227930583       0.042692990      -0.002853900       0.121830917  1.00000000000000  4.42280502536590      1
    -4.970005752      -2.787926136     -12.944921635       1.227930583       0.042692991      -0.002853900       0.121830917  1.00000000000000  4.42280502536590      1

