#
# Number of atoms
#
 28
#
# The current total energy in Eh
#
 -13639.672377124645
#
# The current gradient in Eh/bohr
#
      -0.000106863004
      -0.000309788509
      -0.000016286987
      -0.000076591639
      -0.000108079859
       0.000005224418
      -0.000071948648
       0.000046977117
      -0.000076898052
      -0.000011280258
       0.000013718844
      -0.000040699822
       0.000100260860
       0.000167835798
       0.000020380517
       0.000040404385
       0.000025658735
      -0.000042337427
      -0.000096455363
      -0.000218598002
      -0.000078860454
      -0.000064341506
      -0.000371123235
       0.000039476493
       0.000081074114
       0.000328320288
       0.000199671866
       0.000027401061
       0.000131315165
      -0.000119968316
       0.000105756269
      -0.000067876842
       0.000000641348
       0.000003676149
      -0.000007489779
       0.000004861496
       0.000035561280
       0.000020749606
       0.000004713457
       0.000039446980
       0.000021733715
      -0.000044192600
      -0.000012826358
       0.000028579296
      -0.000029057780
       0.000058435046
       0.000002009580
       0.000030528712
      -0.000043805457
       0.000043946629
      -0.000103971486
       0.000006666973
      -0.000038538903
       0.000010709463
       0.000071330531
       0.000028868484
       0.000041871795
       0.000030778321
       0.000015277755
      -0.000053930360
      -0.000134929113
      -0.000035583173
      -0.000076806339
      -0.000030153522
       0.000042972954
      -0.000053765078
      -0.000025538955
      -0.000071437253
      -0.000067569845
       0.000172123514
      -0.000069333432
      -0.000082726998
      -0.000321860029
      -0.000020001623
       0.000107833554
       0.000228645035
       0.000040693372
       0.000057558907
       0.000023117394
       0.000053435097
       0.000016959824
      -0.000051522673
      -0.000117082577
       0.000057188153
#
# The atomic numbers and current coordinates in Bohr
#
   8    -1.6980777   -3.0860810   -3.7099762 
   8    -2.2191140    1.6974617   -6.0306506 
   7     6.7940023   -3.3526952    0.3832721 
   6     4.4731805    0.3116069    2.2799563 
   6     2.6922239    0.7307277    0.0998893 
   6     7.0365455   -0.8217019    1.5562420 
   6     1.0411173   -1.2028042   -0.6830238 
   6     2.7710552    2.9222950   -1.3397421 
   6    -0.4921053   -1.0602154   -2.8392799 
   6     1.1821030    3.2019228   -3.4819846 
   6    -0.6438402    1.3515284   -4.2232043 
   1     4.8592897    2.1035456    3.2329937 
   1     3.5912516   -0.9316665    3.6796026 
   1     8.2154077   -0.9266208    3.2533621 
   1     7.9840519    0.4081756    0.1976519 
   1     1.0470866   -2.9874128    0.3289046 
   1     4.0483125    4.4431163   -0.8346425 
   1     1.1526461    4.9924521   -4.4825053 
   1     5.6101567   -4.4385233    1.4369200 
   1     8.4991007   -4.2334360    0.4365556 
  29     5.9411486   -3.4780210   -3.4822887 
  29     7.7751702   -1.1153689   -7.1715403 
  29     9.5743841   -5.2514940   -6.4218318 
  29     5.1854378   -5.8041589   -7.5202555 
  29     4.0227058    0.6797753   -5.3722591 
  29     1.4448452   -3.9651407   -5.8183865 
  29     3.8287481   -1.8715118   -9.4533311 
  29     7.8272219   -3.9640969  -10.8986846 
