#
# Number of atoms
#
 29
#
# The current total energy in Eh
#
 -13640.158707571427
#
# The current gradient in Eh/bohr
#
       0.000102910103
      -0.000072116660
      -0.000034367548
       0.000011834066
       0.000088638824
      -0.000022154287
       0.000006991057
       0.000009285829
       0.000017740179
      -0.000071675589
       0.000033686489
       0.000001823444
       0.000091829370
       0.000150385685
      -0.000183846407
       0.000056959072
      -0.000046251905
      -0.000005021158
       0.000072333324
       0.000006459231
      -0.000024327700
      -0.000049327894
      -0.000109794862
      -0.000000585999
      -0.000072177997
       0.000262024417
       0.000163949802
      -0.000098350150
      -0.000291719089
       0.000003008815
      -0.000029633415
       0.000162353232
       0.000050101140
      -0.000021201551
       0.000017571995
      -0.000033962475
       0.000007200517
       0.000053825853
      -0.000009193232
      -0.000013020566
      -0.000002622695
      -0.000011208923
      -0.000005082985
      -0.000005801759
       0.000020221863
       0.000038401355
       0.000013777204
      -0.000021720186
      -0.000090150746
      -0.000002641593
      -0.000030575580
      -0.000020454617
       0.000030143273
      -0.000073351667
      -0.000032788167
      -0.000037977737
      -0.000040526442
      -0.000011813368
      -0.000083509233
      -0.000021462781
       0.000015047390
       0.000024022725
       0.000044377115
      -0.000137112802
       0.000194476141
      -0.000117311102
      -0.000022049793
      -0.000292885825
      -0.000026088596
       0.000124834300
       0.000216748259
      -0.000048313918
       0.000115214846
      -0.000289007125
       0.000195064798
      -0.000005271338
      -0.000213939132
      -0.000065634319
      -0.000005388313
      -0.000182249421
      -0.000066428730
      -0.000318202871
       0.000049441316
      -0.000020535465
       0.000052978659
       0.000055026989
      -0.000025076902
#
# The atomic numbers and current coordinates in Bohr
#
   8     0.0741458   -5.6733327   -2.9826459 
   8     3.1218832   -2.2890055   -4.8969558 
   7    -8.1168720    1.6091270   -0.3457070 
   6    -4.2890692    0.6707161    2.2677002 
   6    -2.3664468   -0.0230086    0.2813216 
   6    -7.0356428   -0.0005480    1.6707882 
   6    -2.0662797   -2.5667660   -0.4711508 
   6    -0.8004790    1.7767329   -0.8093748 
   6    -0.2801431   -3.2338910   -2.2322792 
   6     1.0370043    1.1206519   -2.6579390 
   6     1.4290179   -1.4415561   -3.3764109 
   1    -4.1710351    2.6979574    2.6523850 
   1    -3.8217206   -0.2865303    4.0422901 
   1    -8.1513073    0.1898050    3.4013172 
   1    -7.1785411   -1.9607544    1.0507984 
   1    -3.2564185   -4.0264574    0.3364475 
   1    -0.9735697    3.7375916   -0.2449016 
   1     2.3511532    2.5393678   -3.3367758 
   1    -8.0169813    3.4508945    0.1934667 
   1    -9.9892247    1.2194184   -0.5216070 
   1     1.4952715   -5.5223863   -4.1714502 
  29    -6.7424606    1.3365960   -3.9769161 
  29    -5.2466370    3.4435834   -7.9778054 
  29    -2.1883576    1.3470730   -5.2335672 
  29    -5.1598884   -1.2768582   -7.6653818 
  29    -9.7336823    3.5282588   -7.1885650 
  29    -9.6386911   -1.3073606   -6.8430506 
  29    -8.1153310    0.8826301  -10.7189190 
  29    -3.5843482    0.8535116  -11.5242337 
