#
# Number of atoms
#
 30
#
# The current total energy in Eh
#
 -13640.627018921989
#
# The current gradient in Eh/bohr
#
      -0.000309952773
       0.000018919140
       0.000307719947
      -0.000182959623
      -0.000150459197
       0.000219044032
      -0.000107221002
      -0.000539714760
      -0.000130006453
       0.000087338833
       0.000074485884
      -0.000045620318
       0.000184097064
      -0.000062918999
      -0.000078232498
      -0.000101169079
       0.000496252479
       0.000328911636
       0.000188297357
      -0.000224457535
      -0.000267374334
       0.000220080716
       0.000237121375
      -0.000130580929
       0.000118159204
       0.000012569469
       0.000025079054
      -0.000043196567
      -0.000059077161
       0.000143209443
      -0.000033922927
      -0.000046214995
      -0.000116778062
       0.000163426910
       0.000045853257
      -0.000094332799
      -0.000089170421
       0.000073414142
      -0.000166842712
      -0.000032966465
       0.000089724601
       0.000207661074
      -0.000093241774
       0.000008245311
       0.000041341940
      -0.000034574587
      -0.000076198313
       0.000021932445
       0.000042609497
       0.000049052943
       0.000069230982
       0.000004120217
      -0.000011537310
       0.000045071760
      -0.000016543829
       0.000060390067
      -0.000022599577
       0.000083359357
       0.000018135160
       0.000061550650
       0.000031921656
       0.000090023635
       0.000206239808
       0.000069550960
       0.000042047280
      -0.000034548250
       0.000098606614
       0.000229180513
      -0.000004149679
      -0.000493928247
      -0.000529539309
       0.000074269299
      -0.000285850892
       0.000189374034
       0.000058593485
       0.000312528242
      -0.000036733797
       0.000185677991
       0.000170370670
      -0.000530364082
      -0.000170801847
      -0.000124003467
       0.000144651264
      -0.000286848519
       0.000167406383
       0.000455597211
       0.000377455529
      -0.000036729257
      -0.000055128458
      -0.000013090055
#
# The atomic numbers and current coordinates in Bohr
#
   6     0.9306655   -1.5610507    0.2354074 
   6     0.2635741    3.0251932    2.7077632 
   6    -0.9942859   -1.2959193    1.9975737 
   6     2.5430236    0.4433588   -0.3466948 
   6     2.2006008    2.7379563    0.9158969 
   6    -1.3588091    1.0132324    3.2338966 
   8    -3.2539270    1.3202245    4.9395687 
   8    -2.6096093   -3.1878481    2.6718155 
   6     4.5962932    0.1286337   -2.2952811 
   6     7.2395173   -0.3617180   -1.2395221 
   7     7.3638202   -2.7388316    0.2246261 
   1     1.1700907   -3.3661191   -0.7032864 
   1    -0.0793219    4.8341694    3.5997876 
   1     3.3962525    4.3376426    0.4764716 
   1    -4.1179118   -0.2780241    5.1672448 
   1    -2.2008163   -4.7370051    1.7929381 
   1     4.7102105    1.8370535   -3.4480354 
   1     4.0960763   -1.4227780   -3.5641660 
   1     8.5707833   -0.4092362   -2.8193246 
   1     7.8006493    1.1794251    0.0149544 
   1     9.2025489   -3.2454251    0.4460587 
   1     6.5430804   -4.1603188   -0.7731818 
  29     6.1753575   -2.5579272    3.9649368 
  29     3.6820192   -2.3682507    7.9481931 
  29     6.6478736   -5.7993921    7.4808013 
  29     8.9093484   -1.8575179    7.9100592 
  29     3.4579760    1.3258134    5.3088850 
  29     8.2081189    1.7447175    5.2760477 
  29     5.8863839    1.4053544    9.4230529 
  29     6.4334043   -2.6328981   11.7325143 
