#
# Number of atoms
#
 31
#
# The current total energy in Eh
#
 -13641.082502085141
#
# The current gradient in Eh/bohr
#
      -0.000185811706
      -0.000123173933
       0.000054847483
      -0.000140474759
      -0.000270295899
       0.000031296555
       0.000116565788
       0.000339205970
      -0.000057994317
      -0.000173145466
      -0.000246090119
       0.000003983596
      -0.000007968372
       0.000410586953
       0.000136044099
      -0.000024534463
       0.000019935516
      -0.000045559273
       0.000185494904
       0.000014433955
      -0.000008637629
       0.000055323954
      -0.000079023351
      -0.000018797808
      -0.000070992240
      -0.000065470603
      -0.000132517042
       0.000126910915
       0.000093898834
       0.000094375574
      -0.000096377598
       0.000046347393
      -0.000087855112
       0.000008052481
      -0.000022976887
       0.000000326760
       0.000024161667
       0.000020293793
      -0.000053060170
       0.000065170631
      -0.000009360981
       0.000041925642
       0.000200600255
      -0.000035412763
      -0.000009642952
       0.000071467272
      -0.000019771499
      -0.000074992178
       0.000046031185
       0.000050401932
      -0.000057816376
      -0.000010872794
      -0.000017697759
      -0.000044665245
      -0.000003986347
       0.000021302787
      -0.000023391636
       0.000010479093
      -0.000028324188
       0.000038005347
       0.000004687191
       0.000039430916
       0.000029001778
       0.000002421449
      -0.000007127391
      -0.000022709328
      -0.000027838591
      -0.000060146006
      -0.000091972100
      -0.000307743905
       0.000189022992
       0.000245842736
       0.000466471379
       0.000109991976
       0.000087958363
       0.000065762834
       0.000203391475
      -0.000286960401
       0.000007560784
       0.000211063739
       0.000164441507
       0.000007659491
      -0.000213812306
      -0.000248475124
       0.000077032236
      -0.000150087704
      -0.000199473164
      -0.000295499439
      -0.000183808822
       0.000126792800
       0.000166262496
      -0.000078431812
      -0.000042731824
#
# The atomic numbers and current coordinates in Bohr
#
   6     0.9497265    3.7493672   -1.7371068 
   6     0.2230285   -1.2398786   -0.2367706 
   6     2.7157645    1.9091941   -2.4049473 
   6    -1.1829010    3.0784486   -0.2980140 
   6    -1.5563746    0.5809045    0.4601325 
   6     2.3328110   -0.6054273   -1.6560188 
   8     4.8425073    2.3702644   -3.7714482 
   8     3.9966191   -2.4352563   -2.3380187 
   6    -3.8661961   -0.1771063    1.9464486 
   6    -5.9041881   -1.5145368    0.4074864 
   7    -7.1472697    0.2215681   -1.4507941 
   1    -5.9773466    0.5940075   -2.9896608 
   1    -8.7418393   -0.5801642   -2.1838249 
   1    -7.6481203    1.9030088   -0.6458149 
   1     1.3015905    5.7051192   -2.2305998 
   1    -0.0322309   -3.1988088    0.2979632 
   1    -2.5101700    4.5317691    0.2560842 
   1     4.8787479    4.1023231   -4.3529090 
   1     5.3111828   -1.6991195   -3.3792248 
   1    -4.6923161    1.4800514    2.8591273 
   1    -3.3248449   -1.4847773    3.4478643 
   1    -5.1327276   -3.0756065   -0.6910605 
   1    -7.3866118   -2.2247374    1.6409937 
  29    -5.3571430    1.8674476   -7.7514223 
  29    -3.2331534   -1.9466272   -6.0863516 
  29    -6.5857439   -2.1728196   -9.4898073 
  29    -3.5331860    0.5103371  -11.8552402 
  29    -1.7092939    2.4025817   -4.9862899 
  29    -1.8173966    4.2422021   -9.6259169 
  29     0.0120120    0.0798696   -8.7179364 
  29    -2.0590906   -3.6959448  -10.3270818 
