#
# Number of atoms
#
 30
#
# The current total energy in Eh
#
 -13640.615869182802
#
# The current gradient in Eh/bohr
#
      -0.000166137380
       0.000211457727
      -0.000118785941
       0.000149941439
      -0.000103717442
       0.000195027042
      -0.000215054378
       0.000029551792
      -0.000085057317
       0.000197212977
      -0.000116925906
       0.000200046611
       0.000006697801
      -0.000113661811
      -0.000041541769
      -0.000030269227
      -0.000034343039
       0.000040325528
      -0.000078898577
       0.000065347395
       0.000010576448
       0.000014852691
      -0.000043308968
       0.000023574719
      -0.000002105615
      -0.000085132597
      -0.000000361361
       0.000008296311
      -0.000075113727
      -0.000025240091
      -0.000261162294
       0.000139475408
      -0.000089357831
       0.000228856947
      -0.000061776973
      -0.000232962409
      -0.000036813702
       0.000245702300
       0.000042635798
      -0.000102612112
      -0.000023958757
      -0.000025726337
       0.000016095945
       0.000013413600
       0.000039609500
       0.000056733800
       0.000017525444
       0.000009459470
      -0.000009020282
      -0.000004952475
       0.000011318949
       0.000038634281
       0.000006419656
       0.000023174340
       0.000024314091
      -0.000023289978
      -0.000028092146
       0.000033097563
       0.000011209562
       0.000007193219
      -0.000030356365
      -0.000007181119
       0.000029264758
      -0.000120857707
       0.000040569949
       0.000018681375
       0.000085382748
      -0.000294229617
       0.000560547993
      -0.000342144159
      -0.000033212543
      -0.000153091176
       0.000031815343
       0.000432330964
      -0.000051246781
      -0.000134862477
      -0.000149602427
      -0.000241396250
      -0.000178289679
      -0.000092709406
       0.000170913275
       0.000502767568
      -0.000013219184
      -0.000181448341
      -0.000347862685
       0.000091357374
       0.000022204683
       0.000129787667
       0.000106829148
      -0.000147346859
#
# The atomic numbers and current coordinates in Bohr
#
   8     5.8213507   -0.4875035    2.5913752 
   6     3.8866614    0.5885045    1.2813975 
   6     1.7409016   -0.7254010    0.6355586 
   6    -0.2147602    0.4547554   -0.7426778 
   6    -2.5723629   -0.9972603   -1.4042809 
   6    -4.4504056   -1.2985084    0.7639085 
   7    -5.5774301    1.1870087    1.5132116 
   1    -7.0289549    0.9495012    2.7617602 
   1    -4.2608093    2.3231754    2.4300612 
   1    -6.2576536    2.1548597   -0.0118181 
   6     0.0705512    2.9795989   -1.4000930 
   6     2.2589323    4.3698937   -0.7108619 
   6     4.3060933    3.1893262    0.5761469 
   8     6.4315967    4.2010525    1.1607286 
   1     7.0509792    0.9020429    2.7070164 
   1     1.5587468   -2.6869268    1.2006581 
   1    -3.5378166   -0.0956393   -2.9929676 
   1    -2.0820303   -2.9092264   -2.0111554 
   1    -6.0106377   -2.5224062    0.2207459 
   1    -3.5495392   -2.0533094    2.4538717 
   1    -1.3970874    3.9149699   -2.4798330 
   1     2.5051927    6.2845462   -1.3958582 
  29    -3.3290525    5.8989267    5.6079536 
  29    -1.5959556    7.2431242    9.7413482 
  29    -4.6553884    3.6726683    9.3493972 
  29    -1.3371312    1.7977724    6.3990898 
  29     0.1786654    8.9247450    5.7422309 
  29     0.2841028    4.7358607    2.9604373 
  29     1.8633017    4.9822423    7.4036446 
  29    -0.1639261    2.8823596   10.8954366 
